ID_user,Acquisition_date,Age_years,Sex,Delay_since_commotion_days,Number_of_concussions,Eye,Eye_side,n_samples,series_payload,analysis_payload,video_file,conversion_coef,baseline_area,min_area,amplitude_area,max_constriction_velocity,max_dilation_velocity,reaction_time_s,start_constriction_idx,plateau_start_idx,plateau_end_idx,plateau_duration_s,constriction_time_s,max_area_dilation,recovery_percent_1s,time_to_75pct_s,avg_dilation_velocity_75pct,avg_constriction_velocity,avg_dilation_velocity,max_dilation_idx,baseline,amplitude,ncv,mcv_over_amp,time_to_min_s,recovery_1s_ratio,max_constr_vel,max_dilat_vel,t_75_s,t75_over_amp,avg_dil_vel_to_75,avg_constr_vel,avg_dilat_vel,t50_constriction_s,t50_over_amp
601,2026-05-07,,F,,,left,gauche,450,"{""Width"": [44.302780867630695, 44.2314953122517, 44.16764306019033, 44.11122411144658, 44.062238466020446, 44.020686123911936, 43.98656708512104, 43.95988134964776, 43.940628917492106, 43.92880978865407, 43.92442396313365, 43.92747144093085, 43.93795222204567, 43.95586630647811, 43.981213694229105, 44.00642689408079, 44.03967371153228, 44.07971820541437, 44.12532443455787, 44.2365591397859, 44.3087381040672, 44.38400692127151, 44.417748115190676, 44.46879248547865, 44.57804968483596, 44.63959955506215, 44.70359658880335, 44.770905944877995, 44.84214559387071, 44.917686318132226, 44.9976517117795, 45.09059448770337, 45.192806822396236, 45.30058089235051, 45.41020887405858, 45.51798294401285, 45.62019527870572, 45.71313805462959, 45.85440613026919, 45.99814608824719, 46.141886046225196, 46.283154121864804, 46.419478432827596, 46.5483870967752, 46.6674082313692, 46.774069954271184, 46.86590038314278, 46.940427635645555, 46.995179829441135, 47.027685082191105, 47.03547151155707, 47.07736991719296, 47.108762822890654, 47.06229143492872, 47.04202199975383, 47.01731416251355, 46.99234265782384, 46.971392081737925, 46.9588568917463, 46.95924140677672, 46.964899270795726, 46.97672310798108, 47.00028838627383, 47.077740699543725, 47.14777736579841, 47.21039838503789, 47.222222222223245, 47.28669715321654, 47.34252049602541, 47.3896922506499, 47.428212417089966, 47.414699460306714, 47.409220121123255, 47.45391999340935, 47.48749639517262, 47.50994932641309, 47.52127878713076, 47.521484777325625, 47.51056729699769, 47.48852634614695, 47.43367115725394, 47.35434433321076, 47.28677268295465, 47.23184883066335, 47.1906027273112, 47.16420165066912, 47.15395020530458, 47.161290322581664, 47.18780126066101, 47.23519960449985, 47.30533926585197, 47.39340007415749, 47.43807934742409, 47.48152267952148, 47.522494129280474, 47.6210604375242, 47.672537387221396, 47.719070572241804, 47.75942405141619, 47.79236188357538, 47.8779508095425, 47.97280929427863, 48.01563465579143, 48.04857248795061, 48.070386849586995, 48.07984179953138, 48.07570139661456, 48.05672969966734, 48.02169076752051, 48.00000000000104, 48.00000000000104, 48.00000000000104, 48.00000000000104, 48.00000000000104, 48.00000000000104, 48.00000000000104, 47.99744814499876, 47.99332591768736, 47.98854209833834, 47.98393276480144, 47.98026129250469, 47.97821835445443, 47.97842192123524, 47.98141726101001, 47.9876769395199, 47.99760082008436, 48.01151606360112, 48.0296771285462, 48.052265770973875, 48.07939104451674, 48.111089300385636, 48.14732418736972, 48.18798665183641, 48.235446792733704, 48.2884686688924, 48.34581633914331, 48.40625386231719, 48.4685452972449, 48.531454702757195, 48.5937461376849, 48.65418366085879, 48.71153133110969, 48.76455320726839, 48.812013348165685, 48.85267581263237, 48.88891069961646, 48.920608955485356, 48.94773422902823, 48.970322871455906, 48.988483936400975, 49.00239917991774, 49.012323060482196, 49.01858273899209, 49.02157807876686, 49.02178164554767, 49.0197387074974, 49.01606723520066, 49.00890604666147, 49.00000000000106, 48.991093953340645, 48.98393276480146, 48.980261292504714, 48.97821835445445, 48.97842192123526, 48.981417261010016, 48.98767693951991, 48.99760082008438, 49.011516063601135, 49.02967712854621, 49.0522657709739, 49.079391044516754, 49.11108930038566, 49.14732418736975, 49.18798665183643, 49.235446792733725, 49.28846866889243, 49.345816339143326, 49.40625386231722, 49.468545297244916, 49.531454702757216, 49.593746137684924, 49.65418366085881, 49.71153133110971, 49.76455320726842, 49.812013348165706, 49.8526758126324, 49.88891069961648, 49.920608955485385, 49.94773422902825, 49.97032287145593, 49.99999999999999, 49.99999999999999, 49.999999999999986, 49.999999999999986, 49.999999999999986, 49.999999999999986, 49.999999999999986, 49.999999999999986, 49.999999999999986, 50.00000000000022, 50.00000000000022, 50.00000000000022, 50.00000000000022, 50.00000000000022, 50.04626951995395, 50.10989010989033, 50.165345490423114, 50.19052155275087, 50.166706358657045, 50.07859014050987, 49.914265301262425, 49.66522641445263, 49.32637022420325, 48.89599564522186, 48.37580376280087, 47.770897832817546, 47.08978328173395, 46.29809818664328, 45.440070765148356, 44.62007961079188, 43.78460858027441, 43.04245908889891, 42.344537815126245, 41.66532847957015, 41.0221821522133, 40.42904773245348, 39.956622325043554, 39.45415575136955, 39.087707957677175, 38.75987480012265, 38.47201714693992, 38.282244071717926, 38.08736774061868, 37.882965331881906, 37.661211853162484, 37.41088014153046, 37.195931003980704, 37.034055727554346, 36.84077841662997, 36.68951791242829, 36.49137549756761, 36.315347191508344, 36.17027863777106, 36.06501547987632, 36.0084033613447, 35.90712074303421, 35.92790800530754, 35.85714285714302, 35.85714285714302, 35.92790800530754, 35.96727111897407, 36.03095975232214, 36.11455108359149, 36.213622291021835, 36.32375055285288, 36.44051304732435, 36.619637328615816, 36.75895621406473, 36.858469703671105, 36.91817779743493, 36.9380804953562, 36.92260061919505, 36.87616099071208, 36.79876160990713, 36.6904024767802, 36.551083591331285, 36.38080495356039, 36.17956656346752, 35.947368421052666, 35.68421052631583, 36.06439253491612, 36.075886787789685, 36.12693115807765, 36.215053763441645, 36.29440118650431, 36.42256828575039, 36.595847237672274, 36.81053021876239, 37.0629094055131, 37.349276974416824, 37.56124088493468, 37.79730564825196, 38.05129155852263, 38.31701890990072, 38.5883079965402, 38.85897911259508, 39.122852552219356, 39.37374860956704, 39.60548757879211, 39.76850821900963, 39.91669756519676, 40.103942652330616, 40.28068223952627, 40.44073662093772, 40.57792609071896, 40.64268940798506, 40.75021628970549, 40.85094549499532, 41.00000000000089, 41.14363181312658, 41.27898282041864, 41.40304041527713, 41.51263749845597, 41.665755160055284, 41.81677172166695, 41.96329254727566, 42.102768508219924, 42.23791867507198, 42.36379928315504, 42.53676924978463, 42.70973921641423, 42.87900135953622, 43.040847855643, 43.19157088122699, 43.32746261278057, 43.444815226796145, 43.539920899766116, 43.60907180818287, 43.70986281053116, 43.79644048943365, 43.86633296255194, 43.91706834754761, 43.94617476208227, 43.95118032381753, 43.990915832407325, 44.02076381164352, 44.0394883203569, 44.04043072549842, 44.03210357187093, 44.01759671239744, 44.00000000000095, 43.98240328760446, 43.96789642813097, 43.95956927450348, 43.960511679644995, 43.979236188358385, 44.00908416759457, 44.048819676184365, 44.097206772958565, 44.15300951674796, 44.21499196638336, 44.28191818069556, 44.309170683476424, 44.355580274379896, 44.413854900507694, 44.48337659127522, 44.56339004930128, 44.65300265040813, 44.751184443621455, 44.856768151170314, 44.968449168487226, 45.08478556420812, 45.20419808017236, 45.32979030198261, 45.45785440613125, 45.5846825691107, 45.71422980266239, 45.84518291929404, 45.97638322415953, 46.10682651505887, 46.235663082438265, 46.36219770939004, 46.485889671652636, 46.6063527376107, 46.715692333045965, 46.81143657562001, 46.891113582994464, 46.9522514728309, 46.992378362790944, 47.00902237053618, 46.99971161372821, 47.02327689202096, 47.035100729206306, 47.04075859322531, 47.04114310825573, 47.0372842252719, 47.03034922204471, 47.02164270314168, 47.01260659992686, 47.0048201705609, 47.0048201705609, 47.01260659992686, 47.02164270314168, 47.03034922204471, 47.0372842252719, 47.04114310825573, 47.04075859322531, 47.035100729206306, 47.02327689202096, 46.99971161372821, 46.922259300458315, 46.85222263420363, 46.789601614964134, 46.734396242739855, 46.68660651753077, 46.6462324393369, 46.60845383759834, 46.575124624068906, 46.54796138370581, 46.5285433746697, 46.51831252832466, 46.51857344923816, 46.53049341518111, 46.55510237712786, 46.593292959256146, 46.650640629507045, 46.72590944671135, 46.81786346969986, 46.92526675730336, 47.040071959242425, 47.15891456900087, 47.278292753265966, 47.39456735192841, 47.50396187808229, 47.60256251802517, 47.686318131257984, 47.75104025048511, 47.79240308161435, 47.81275491286718, 47.87092654389754, 47.92230049849731, 47.96564083549727, 47.99971161372822, 48.02327689202099, 48.02546038808657, 48.01554539337364, 47.997857701974425, 47.976585781184525, 47.95578077150299, 47.93935648663228, 47.93108941347829, 47.93461871215034, 47.953446215961165, 48.0439583075856, 48.13879619330224, 48.280105466980814, 48.335381464413736, 48.39447710860393, 48.45739239955037, 48.52412733725305, 48.594681921711974, 48.66905615292714, 48.74725003089855, 48.829263555626206, 48.9150967271101, 49.004749545350236, 49.09822201034662, 49.19551412209925, 49.29662588060811, 49.401557285873224], ""Height"": [45.68854282536152, 45.661687589385046, 45.63700407860587, 45.61449229302401, 45.59415223263946, 45.57598389745221, 45.55998728746228, 45.54616240266965, 45.53450924307433, 45.52502780867633, 45.51771809947563, 45.51258011547224, 45.50961385666616, 45.50881932305738, 45.51019651464689, 45.46248918551575, 45.41045606229241, 45.35286120380768, 45.34977135088468, 45.314423433445555, 45.30688419231343, 45.325917686319116, 45.370287974293404, 45.43875911506711, 45.53009516747102, 45.64306019033593, 45.77641824249265, 45.867630700779635, 46.01890989988976, 46.18081819305501, 46.292670868867646, 46.39709416498542, 46.49319545723058, 46.57994479462878, 46.65617489940913, 46.72058116700413, 46.77172166604971, 46.808017138385225, 46.89387385160568, 46.98343838833373, 47.074238866230985, 47.16380340295903, 47.24966011617949, 47.32933712355395, 47.400362542743984, 47.46026449141124, 47.50657108721727, 47.536810447823704, 47.609813372884474, 47.680962386191446, 47.74902154657542, 47.81275491286718, 47.87092654389754, 47.92230049849731, 47.96564083549727, 47.99971161372822, 48.023276892020974, 48.035100729206334, 48.040758593225334, 48.04114310825575, 48.03728422527192, 48.030349222044734, 48.02164270314171, 48.01260659992688, 48.00482017056092, 47.99728865406111, 47.99290878754276, 47.98782597948441, 47.98292856260146, 47.97902762328617, 47.97685700160777, 47.97707329131238, 47.98025583982306, 47.98690674823982, 47.997450871339566, 48.012235817576126, 48.03153194908026, 48.055532381659674, 48.08435298479897, 48.118032381659674, 48.15653194908026, 48.20244716351606, 48.254542083797865, 48.31158076875646, 48.37232727722265, 48.43554566802725, 48.50000000000106, 48.56445433197485, 48.62767272277945, 48.688419231245646, 48.74545791620424, 48.79755283648604, 48.843468050921835, 48.88196761834242, 48.915647015203135, 48.94446761834243, 48.968468050921835, 48.98776418242597, 49.00254912866253, 49.01309325176228, 49.01974416017904, 49.02292670868973, 49.02314299839434, 49.020972376715925, 49.01707143740064, 49.01217402051768, 49.00709121245935, 49.00271134594099, 49.00000000000106, 49.00000000000106, 49.00000000000106, 49.00000000000106, 49.00000000000106, 49.00000000000106, 49.00000000000106, 49.00000000000106, 49.00000000000106, 48.997448144998764, 48.99332591768738, 48.98854209833835, 48.98393276480146, 48.980261292504714, 48.97821835445445, 48.97842192123526, 48.981417261010016, 48.98767693951991, 48.99760082008438, 49.011516063601135, 49.02967712854621, 49.0522657709739, 49.079391044516754, 49.11108930038566, 49.14732418736975, 49.18798665183643, 49.235446792733725, 49.28846866889243, 49.345816339143326, 49.40625386231722, 49.468545297244916, 49.531454702757216, 49.593746137684924, 49.65418366085881, 49.71153133110971, 49.76455320726842, 49.812013348165706, 49.8526758126324, 49.88891069961648, 49.920608955485385, 49.94773422902825, 49.97032287145593, 49.988483936400996, 50.00239917991777, 50.012323060482224, 50.018582738992116, 50.021578078766886, 50.02178164554769, 50.019738707497424, 50.01606723520069, 50.01145790166379, 50.00667408231476, 50.00255185500337, 50.00000000000108, 50.00000000000108, 50.00000000000108, 50.00000000000108, 50.00000000000108, 50.00000000000108, 50.00000000000108, 50.00000000000108, 50.00000000000108, 50.00000000000108, 50.00000000000108, 50.00000000000108, 50.00000000000108, 50.00000000000108, 50.00000000000108, 50.00000000000108, 50.00000000000108, 50.00000000000108, 49.98264738598551, 49.954616240268045, 49.92208626869469, 49.89074280064377, 49.86577678902592, 49.912618959338616, 49.96873068842031, 50.03287603510181, 50.103819058213915, 50.18032381658742, 50.26115436905312, 50.07067669172933, 50.236591478696745, 50.39248120300751, 50.53834586466164, 50.674185463659136, 50.79999999999998, 50.91578947368419, 51.021553884711764, 51.11729323308269, 51.20300751879722, 51.18177797434785, 51.18487394958005, 51.19902697921296, 51.251835471030745, 51.408757187085584, 51.57912428129168, 51.83635559486976, 52.15789473684232, 52.38434321096882, 52.482529854047115, 52.46130030959776, 52.38965059708117, 52.23883237505552, 51.98452012383923, 51.64882795223376, 51.15612560813821, 50.55108359133149, 49.86466165413556, 49.132242370632675, 48.42370632463533, 47.70433436532528, 47.00176912870432, 46.34586466165433, 45.636444051304935, 45.04245908889891, 44.4126492702346, 43.81379920389227, 43.21052631578966, 42.60946483856719, 42.05926581158798, 41.50641309155259, 40.953118089341174, 40.45731977001344, 40.01680672268925, 39.569217160548604, 39.10791685095108, 38.72401592215851, 38.346306943830335, 38.010393631136836, 37.71959310039822, 37.475011057054566, 37.2755417956658, 37.168951791242975, 37.01061477222485, 36.971693940734355, 36.958867757629534, 36.93454223794797, 36.958867757629534, 37.0318443166742, 37.15347191508199, 37.323750552852886, 37.44051304732436, 37.559486952675975, 37.67624944714745, 37.84652808491835, 37.96815568332613, 38.0411322423708, 38.065457762052354, 38.0411322423708, 37.96815568332613, 37.84652808491835, 37.779713990859506, 37.695061182367695, 37.59256965944274, 37.47223942208464, 37.3340704702934, 37.17806280406902, 37.0042164234115, 36.81253132832084, 36.60300751879703, 36.94858484736206, 36.96687677666623, 37.02842664689241, 37.13076257570221, 37.2714126807572, 37.40452354468008, 37.587690025955574, 37.81720430107609, 38.02805586454166, 38.21530095167552, 38.43406253862399, 38.678160919541064, 38.94141638858074, 39.21764923989703, 39.500679767643916, 39.784328265975404, 40.01903349400655, 40.2586824867145, 40.495859597084056, 40.7231491781, 40.93313558274714, 41.11840316401028, 41.33283895686655, 41.52688172043101, 41.68567544184987, 41.86768013842632, 42.027660363367616, 42.16351501668612, 42.27289581016035, 42.41450994932733, 42.54336917562816, 42.65761957730904, 42.75516005438234, 42.833642318626566, 42.96044988258652, 43.087257446546474, 43.209121245829635, 43.321097515759185, 43.47954517365066, 43.637374860957564, 43.79087875417224, 43.93634902978713, 44.07007786429461, 44.18835743418709, 44.28747991595696, 44.425040168088955, 44.55518477320575, 44.67544184896895, 44.78333951304015, 44.876405883080935, 44.952169076752924, 45.0081572117177, 45.04189840563687, 45.06318131257049, 45.06794277592485, 45.059875169942885, 45.04276356445531, 45.02048572488047, 44.99701211222444, 44.97640588308094, 44.962822889631425, 44.96051167964502, 44.97923618835841, 45.009084167594594, 45.048819676184394, 45.097206772958586, 45.15300951674797, 45.21499196638338, 45.281918180695584, 45.352552218515385, 45.38227660363465, 45.42992213570732, 45.49301693239501, 45.56908911135928, 45.655666790261776, 45.75027808676406, 45.85045111852775, 45.95371400321444, 46.057594858485736, 46.15962180200322, 46.25732295142851, 46.3482264244232, 46.429860338648886, 46.50741564701621, 46.58081510320209, 46.65013595352962, 46.672228401929075, 46.707545420838976, 46.75539179335165, 46.81522679520556, 46.88666419478535, 46.96180941787273, 47.03819058212931, 47.11333580521669, 47.18477320479647, 47.20664936349132, 47.2799406748249, 47.34087257446648, 47.38697318007765, 47.47707329131236, 47.56655543196246, 47.65418366085878, 47.73872203683209, 47.818934618713186, 47.93696700037182, 48.03151649981565, 48.102583117044674, 48.150166852058874, 48.174267704858295, 48.174885675442894, 48.152020763812686, 48.10567296996767, 48.03584229390785, 47.94252873563322, 47.82573229514378, 47.74675565443188, 47.66345321962778, 47.533679396861736, 47.4187368681261, 47.362007168459805, 47.303423557039714, 47.24422197503501, 47.18563836361491, 47.128908663948614, 47.13657149919766, 47.06303299963024, 47.05635891731656, 47.01310097639454, 46.994561858856535, 47.00074156470254, 47.031640093932545, 47.08725744654656, 47.16759362254459, 47.21134593993428, 47.26065999258538, 47.31429983932867, 47.37102953899497, 47.38623161537613, 47.4187368681261, 47.46607341490648, 47.525769373378864, 47.59535286120484, 47.67235199604602, 47.754294895564016, 47.8387096774204, 47.92312445927678, 48.06637004078709, 48.22382894574322, 48.33296255098362, 48.4346805092088, 48.5265109380804, 48.605981955259985, 48.670621678409155, 48.717958225189534, 48.80682239525504, 48.78791249536628, 48.818084909159374, 48.85357186998005, 48.89383265356674, 48.93817204301181, 48.985740328761416, 49.03553330861556, 49.08639228772817, 49.137004078606914, 49.19132369299327, 49.28902484241856, 49.36962498013667, 49.4582234228508, 49.55482017055989, 49.659415223263956, 49.77200858096298, 49.89260024365698, 50.021190211345946, 50.157778484029876, 50.302365061708784, 50.45494994438265, 50.61553313205149, 50.78411462471529, 50.96069442237406, 51.145272525027806], ""Area"": [1576.5116847608451, 1574.8790040362305, 1573.4370273390186, 1572.185754669209, 1571.1251860268023, 1570.255321411798, 1569.5761608241962, 1569.0877042639972, 1568.7899517312007, 1568.6829032258067, 1568.7665587478152, 1569.0409182972264, 1569.5059818740401, 1570.1617494782565, 1571.008221109909, 1567.8789019898993, 1564.8444256581724, 1563.8077299468882, 1564.5498960573814, 1565.9039964158048, 1568.1652010876624, 1571.1702422445032, 1574.856009269593, 1579.8003097268913, 1586.1285543196489, 1592.8748911136177, 1600.2355763194018, 1608.2367608454183, 1616.746820170595, 1625.5467813620423, 1631.763051168, 1638.3617603510427, 1643.9892664689517, 1648.9029049561598, 1653.4042296873426, 1657.4505816586689, 1660.88481861331, 1664.2959650229009, 1670.7422909405873, 1677.0128113954138, 1683.8629127425897, 1691.4244278828696, 1698.895419972846, 1705.914219873971, 1713.1573209739586, 1720.3886423186627, 1727.643694104598, 1734.6951176616367, 1741.6143789396, 1748.1691858855897, 1754.73812285259, 1760.9322694352131, 1766.8080107527264, 1771.630866271204, 1776.3714657026708, 1780.427120998679, 1783.3377713509224, 1785.4661620319257, 1786.8086084538763, 1789.2819394389214, 1790.5958736868513, 1791.8780008651977, 1793.228595229306, 1794.8241832406766, 1796.900625485146, 1798.307384451899, 1799.6052757385137, 1801.0625690273537, 1802.8959509331746, 1804.5124338153896, 1805.0675115560891, 1805.0958897540868, 1805.2799232480925, 1805.9197559016582, 1806.560600296665, 1806.7966472624294, 1806.500842170352, 1806.3428942034748, 1806.2633187492668, 1805.8165438141536, 1805.8085734767417, 1805.4524359164895, 1805.4085501174534, 1805.0343183784844, 1804.9789284390454, 1805.7386989247702, 1806.6414053887424, 1807.7946676554589, 1809.343550488236, 1810.0820881226446, 1810.962400321384, 1812.9132680756786, 1814.620102212374, 1815.9362146830204, 1817.6927133852819, 1820.1922558398614, 1822.363445556831, 1824.7902877271436, 1827.2825440613422, 1829.143807069623, 1830.893279569932, 1832.5252251885208, 1833.5414299839724, 1834.038631318789, 1833.3197639352766, 1833.2060716846277, 1832.4769031022522, 1832.0842248177382, 1830.7550263255866, 1828.9406789025238, 1827.304386355249, 1825.7371364479445, 1824.6700829316917, 1823.6569031022518, 1822.7136759362647, 1822.5932008404795, 1822.392135600442, 1821.8792606776883, 1822.5076716281271, 1823.996831258757, 1825.5667740523375, 1827.9213662094078, 1830.699415770649, 1834.6316193301598, 1836.9239977753457, 1840.0652667161442, 1843.691863922917, 1847.2926125324836, 1851.4354857249195, 1855.8845403535195, 1859.5720683475868, 1863.042904338194, 1866.3235550612196, 1871.147009146005, 1875.5290931900047, 1880.1406194537549, 1883.6021893462275, 1886.7376850822307, 1889.5987366209777, 1892.3768495860008, 1894.8049578544467, 1897.0406525769783, 1899.4009542702177, 1901.3757430478722, 1902.258621307667, 1902.6489814785798, 1902.4841592245764, 1902.6428708265323, 1902.7026156046811, 1901.8819682186968, 1900.941213076299, 1900.2926881720846, 1898.8818995180238, 1899.1553155358217, 1899.9849791126353, 1901.0647137560663, 1902.3568197998188, 1903.6017351378487, 1905.210619330161, 1907.1588882709596, 1909.3629819553003, 1912.1523374119809, 1914.4354684217446, 1915.8884423433858, 1917.8618342603306, 1919.7356048696502, 1922.1004508713802, 1924.8836774193965, 1927.5655946113382, 1930.4260744037, 1932.912489432745, 1934.9044930169741, 1936.7233485354518, 1939.0008337659544, 1941.205693363038, 1943.7734333210158, 1945.7115880608503, 1947.340162526306, 1949.810482758663, 1951.376789642855, 1952.3802050426823, 1953.340530218804, 1954.4689569892898, 1956.0560295390362, 1958.088920405431, 1960.223630700821, 1962.6998254851494, 1965.731674823921, 1968.256722407656, 1970.6732798171233, 1969.42885112782, 1971.3540130325819, 1973.6791028453488, 1976.4041205661213, 1979.5290661948989, 1983.053939731682, 1986.9787411764703, 1991.3034705292641, 1996.028127790063, 2001.1527129588767, 2006.387570986298, 2011.3752728881118, 2016.1419619637418, 2023.644693940743, 2033.7844772224767, 2045.8813675364972, 2059.676367094215, 2070.942223352508, 2076.467697479001, 2076.0247893631226, 2068.6288701901904, 2051.2410667846175, 2025.997931667413, 1992.7905761831137, 1953.769334807616, 1906.7124484741348, 1855.9334002653773, 1801.690937638221, 1744.804372843882, 1687.814331269357, 1632.7380347928715, 1581.408964322578, 1534.5724692613953, 1492.3210135633267, 1452.487448179278, 1414.4614179566624, 1378.1859680082616, 1344.350571244293, 1313.1533774878428, 1284.6877809229013, 1257.8571096122714, 1233.345520676697, 1210.6832519534182, 1189.5842717086887, 1168.9445568332649, 1148.2254611528872, 1128.9970709125803, 1111.6131304732469, 1094.9889954297555, 1080.8036268612757, 1068.7911512605087, 1057.963277310929, 1049.3837209199514, 1044.8040703228705, 1041.7763777089829, 1040.7777027863822, 1041.9148664307872, 1044.333272445825, 1047.843274214954, 1053.2336948253032, 1058.9068062804115, 1064.9448045112829, 1070.6329509066832, 1076.9940362671432, 1083.1096346749273, 1088.625626271566, 1093.2451671826673, 1096.2143653250823, 1097.0206965944321, 1095.3858589119907, 1093.002450685542, 1089.8046058381242, 1085.3214011204477, 1079.5528365325074, 1072.4989120743032, 1064.1596277458352, 1054.5349835471034, 1043.6249794781074, 1031.4296155388479, 1017.9488917293243, 1042.537291187762, 1043.817070077887, 1047.0478678779116, 1051.6248371029765, 1058.5204523544908, 1067.4841081448753, 1078.5601982449869, 1091.313554443232, 1105.2893738722275, 1119.9733460635516, 1135.0499733036954, 1150.7453932765052, 1166.0256716104566, 1181.9385284884695, 1197.6363295019416, 1212.7797497219394, 1227.0999925843798, 1241.3063007045134, 1254.7704994438539, 1267.3980729205564, 1279.2259278210634, 1290.8982609072089, 1301.8688003955292, 1312.2443079965676, 1322.6791530095454, 1332.2008609566471, 1341.9754307255266, 1351.4563076257862, 1360.423206772987, 1369.5119500680062, 1378.369315288622, 1386.9912332221288, 1395.9209948090772, 1404.7952062786117, 1413.3407114077677, 1422.146073291342, 1430.4761711778829, 1438.805488196793, 1447.1974480287051, 1456.0419892473433, 1464.2890138425728, 1472.707738351286, 1480.1579962922085, 1486.8433178841008, 1493.0631103695787, 1499.0116341614462, 1504.8010708194615, 1510.1820604375557, 1515.8651352119969, 1521.0121699419435, 1525.6324194784659, 1530.204454455601, 1535.0324664442305, 1539.4589424051749, 1543.8568502039639, 1547.8091607959796, 1551.6095853417714, 1555.1433213447374, 1558.6190369546748, 1561.4319773823104, 1564.4589923371987, 1566.9880185391514, 1569.346644914136, 1572.4887418119235, 1575.985663453254, 1579.5765035224663, 1583.0121601780097, 1586.9996114201308, 1590.2426552960424, 1593.49333790635, 1596.4588781362352, 1599.5463510073266, 1602.5510761340108, 1605.935055370199, 1609.710055617387, 1613.5779615622646, 1617.9488997652063, 1622.385580274414, 1627.5002218514749, 1632.3954650846972, 1637.3990071684943, 1642.0239453714357, 1646.4002197503755, 1650.8422041775168, 1655.4795837350503, 1659.6100262019886, 1664.0138631813486, 1668.5439578544422, 1673.9419335064013, 1679.2039637869602, 1685.4834652082925, 1692.4123124459643, 1699.1263668273755, 1706.3214813991221, 1713.625935607502, 1721.2146520825981, 1728.935736250192, 1737.205891607997, 1745.1911250772841, 1752.8493629959594, 1759.7205591398233, 1766.4143437152775, 1772.570064145385, 1778.397206772996, 1783.8155010505886, 1788.2839483376977, 1790.9679598319508, 1791.9286529477586, 1792.2436456557054, 1791.1654862192945, 1789.5176025213589, 1786.8759445062803, 1783.1408942034745, 1778.6274272649007, 1774.0578720801273, 1769.1485021629355, 1763.9774474107414, 1758.5368366086154, 1753.438329254765, 1748.471631071599, 1743.606348041071, 1739.6470038314553, 1735.8995539488697, 1732.7677016438392, 1730.6234118156349, 1729.0742591769003, 1727.98599406752, 1726.9567827215797, 1726.1933115808063, 1725.9891202571132, 1726.9998173279323, 1729.0679678655667, 1731.6267623285505, 1734.375897169732, 1736.65501928072, 1739.5935716228282, 1743.3335517241758, 1747.1505113088995, 1751.354330119924, 1755.4004329502295, 1760.1793802991356, 1764.059946730974, 1768.6318874057977, 1773.933665430764, 1779.2281227289968, 1784.7100816957497, 1791.1279040910042, 1797.2581202571146, 1803.1751993573494, 1808.7301643802145, 1814.6833859844664, 1820.4397535533699, 1825.678948708481, 1831.07156952173, 1835.0720711902509, 1836.21334074902, 1837.1765064887309, 1839.439753800559, 1843.5431468298511, 1848.915700778683, 1854.932092942816, 1861.7801505376747, 1868.860326288509, 1877.6890127302347, 1887.7625094549908, 1900.9407193178017, 1906.796041061498, 1912.5222831399979, 1918.1194455532614, 1923.5875283012883, 1928.9265313840788, 1934.1364548016327, 1939.2172985539503, 1944.1690626410311, 1948.9917470628757, 1953.6853518194835, 1958.249876910855, 1962.6853223369899, 1966.991688097888, 1971.16897419355], ""Center_x"": [891.1231971078976, 891.096160781821, 891.0714164733301, 891.0489641824249, 891.0288039091054, 891.0109356533716, 890.9953594152233, 890.9820751946609, 890.971082991684, 890.9623828062929, 890.9559746384874, 890.9518584882676, 890.9500343556334, 890.950502240585, 890.9532621431412, 890.9540421456131, 890.9562581881296, 890.9657680138619, 890.9786260042214, 890.9937017674151, 891.0114823878577, 891.0216583858802, 891.0398223952733, 891.0617748115383, 891.0865628476276, 891.107523050322, 891.1288022494323, 891.1499962921957, 891.1705448028865, 891.18768990238, 891.2057102954093, 891.219835990626, 891.2333288839644, 891.2493395130583, 891.2608100358616, 891.2781944135652, 891.2929640341313, 891.2936504758566, 891.314398220264, 891.3405003090046, 891.3672690644119, 891.38877036215, 891.4111818069651, 891.441318996435, 891.4724113212403, 891.5003395130585, 891.5247844518794, 891.5437296996856, 891.5580461006249, 891.566998764078, 891.580705846021, 891.5903235694173, 891.5981897169887, 891.6033523668467, 891.6107502163089, 891.6191962674769, 891.6243091089058, 891.6259573600489, 891.6276665430918, 891.6371154369245, 891.651061920672, 891.6662133234652, 891.6749835620017, 891.6872710419177, 891.6944276356637, 891.7035202076574, 891.7197116549446, 891.7334427141459, 891.7467237671681, 891.759034606372, 891.7755471511748, 891.7931497960891, 891.7992656037766, 891.8058849338964, 891.8115592633984, 891.8169001359729, 891.8228277098203, 891.8236680262212, 891.8226671610624, 891.8267090594682, 891.8321882338595, 891.8395990607039, 891.849099246095, 891.8560846619894, 891.8632873563412, 891.8714240514344, 891.8802240761532, 891.8880797182246, 891.8952373007238, 891.89977246325, 891.9040017303369, 891.9097404523737, 891.9214514893284, 891.9390841676129, 891.9527910023676, 891.96546174764, 891.9777835867205, 891.9852427388649, 891.9905471511748, 891.996915090861, 892.0018289457614, 892.0147559016383, 892.0255169942103, 892.0378919787611, 892.0535069830869, 892.0648109010203, 892.0787985416088, 892.0926182177922, 892.1102005932711, 892.1287031269504, 892.145659374633, 892.1606231615567, 892.170939438902, 892.1749750340076, 892.1791353355773, 892.1801365715185, 892.1819878877957, 892.1849739216607, 892.1928024966204, 892.2034399950755, 892.2192229638061, 892.2350035842488, 892.2475698924925, 892.2621224817892, 892.2784459275931, 892.2944938821106, 892.3157664071383, 892.3421024595422, 892.3725184773398, 892.4071332344773, 892.451312569541, 892.5014086021698, 892.5531263132068, 892.6035901619277, 892.6553362996113, 892.7033862316348, 892.7521101223774, 892.7951023359482, 892.8371181559951, 892.8744993202516, 892.904664565586, 892.931692127074, 892.9584239278404, 892.9798628105495, 893.0000432579602, 893.0186712396684, 893.0337730812207, 893.044077864313, 893.0478954393965, 893.0460517859543, 893.0427115313505, 893.0405010505693, 893.036993202343, 893.0331717958419, 893.0301015943835, 893.03038969227, 893.0340716846072, 893.0401641330066, 893.0539174391492, 893.0590084044193, 893.0627872945441, 893.0652553454648, 893.0692632554884, 893.0827994067674, 893.0971910765242, 893.11496910149, 893.1346276109449, 893.1519196638435, 893.1652047954711, 893.1794392535108, 893.1956237795274, 893.2144281300403, 893.2310111234899, 893.2446037572805, 893.2554333209932, 893.2636429366155, 893.2710818193248, 893.2790254604074, 893.2868357434379, 893.2941276727421, 893.3009032258258, 893.3082134470592, 893.3177214188798, 893.3268597206967, 893.3327455197326, 893.3375508589984, 893.3396418242685, 893.3483131875116, 893.3649021134788, 893.3797645532267, 893.3911984962408, 893.3985147869676, 893.4029560961227, 893.4045224237063, 893.4032137697184, 893.3990301341588, 893.3919715170277, 893.3820379183251, 893.3692293380509, 893.3535457762091, 893.3067664750149, 893.2601176470627, 893.2317226890796, 893.2288487394998, 893.2312043343693, 893.2358390092918, 893.2378876603312, 893.2335033171203, 893.2389951348999, 893.2694471472839, 893.2979570986329, 893.3108328173413, 893.3117302078765, 893.3046753648867, 893.295997788593, 893.320960194608, 893.3286421937237, 893.328160990716, 893.3409407341924, 893.3574537815165, 893.3932220256563, 893.4348894294599, 893.4610778416669, 893.4910544007115, 893.5195869084514, 893.5353135780666, 893.5588611234007, 893.5758443166781, 893.5577978770496, 893.529462184878, 893.4868624502473, 893.4203808049575, 893.3419509066824, 893.2774798761649, 893.2041698363595, 893.1240592658155, 893.0392587350769, 892.959264042463, 892.8979770013308, 892.8436819991193, 892.8029358690885, 892.7761459531221, 892.7670769571026, 892.7662242370671, 892.7830203449839, 892.8063356921755, 892.8311101282658, 892.8552392746611, 892.8760544007116, 892.8871074745726, 892.8995258735112, 892.9160645732015, 892.9383184431707, 892.9568102609504, 892.9696452896987, 892.981166298102, 892.9974515701057, 893.0097633790397, 893.0264860681153, 893.0293892083189, 893.03606015038, 893.035928320802, 893.0332275689223, 893.0279578947369, 893.0201192982457, 893.0097117794488, 892.9967353383461, 892.9811899749377, 892.9630756892235, 892.9423924812036, 893.0213558274819, 893.0267529353797, 893.0298710913554, 893.0303109628175, 893.032030404172, 893.0320909652894, 893.0281232233538, 893.0307906315854, 893.0432778395942, 893.0598026202147, 893.0743044123294, 893.0868661475909, 893.0922728958294, 893.098722778415, 893.1064622420165, 893.114055740966, 893.1177605982148, 893.1192025707769, 893.126900135973, 893.1349987640782, 893.1423461871409, 893.1529686071136, 893.1663029291999, 893.182642442239, 893.1941635150359, 893.198938326555, 893.2027120257269, 893.2063990854228, 893.2156803856329, 893.2200219997721, 893.2232547274942, 893.2225462860162, 893.222291434947, 893.217308367341, 893.2144678037519, 893.2165064887105, 893.2193401310292, 893.2204281300403, 893.2211468298303, 893.2211984921711, 893.2287795081147, 893.2371040662659, 893.2453941416582, 893.2496120380862, 893.2507284637444, 893.2551928068417, 893.2598280806027, 893.2607693733972, 893.2575529600986, 893.2549207761904, 893.2470427635837, 893.2390758868072, 893.2271427512243, 893.2122355704062, 893.1991635150359, 893.1860847855835, 893.1745902855218, 893.1585647015395, 893.1410224941486, 893.1198462489378, 893.1036592510391, 893.0897975528559, 893.0762993449705, 893.0645334322279, 893.0554412310167, 893.0547770362324, 893.0549598319312, 893.0524378939756, 893.0562050426594, 893.0548258559085, 893.0505228031341, 893.0502492893531, 893.0578942034552, 893.0668277098204, 893.0718562600614, 893.0769482140843, 893.0859930787487, 893.0974073662287, 893.1078949450199, 893.12400482019, 893.1381575825184, 893.1535556791689, 893.1701751328831, 893.1889487084608, 893.2058283277909, 893.2193424793173, 893.2299262143315, 893.2460453590602, 893.2634950562547, 893.2761028303246, 893.2825363984869, 893.288253244365, 893.2838570016261, 893.2790169324134, 893.2698425411144, 893.2551337288538, 893.2456880484683, 893.233325299735, 893.2262067729769, 893.2310194042957, 893.2400380670072, 893.2511011000068, 893.2642382894767, 893.280755407262, 893.3014021752758, 893.3254877024048, 893.349402422464, 893.3774181189169, 893.4025313311279, 893.4279227536962, 893.4523831417818, 893.474940551249, 893.4922945248, 893.5058843159259, 893.5180117414604, 893.5324114448346, 893.5434941292988, 893.5503516252819, 893.5536500432772, 893.5498728216729, 893.5440787294717, 893.5423884563288, 893.5426377456627, 893.545479421599, 893.5517125201035, 893.5600766283717, 893.5758914843846, 893.5909687307077, 893.6025549376042, 893.6139944382842, 893.6224802867578, 893.6320173031958, 893.6439990112664, 893.6548190582321, 893.661891855167, 893.6708678779083, 893.6776164874746, 893.6848604622613, 893.6907528117854, 893.6942051662534, 893.6960517859542, 893.6948322828027, 893.6969747868194, 893.6982064021945, 893.7033311086586, 893.7036664194977, 893.7076598690094, 893.7102208627061, 893.7128487208203, 893.7102291435122, 893.7063097268763, 893.7034402422639, 893.6969310345022, 893.6913161537705, 893.6839480904903, 893.6724308491109, 893.6626845878329, 893.6558286024444, 893.6508498468999, 893.6497549540835, 893.6496636729619, 893.6520224392178, 893.6581203806892, 893.6685019981242, 893.683525069026, 893.6979824496547, 893.7108382011763, 893.7254550452888, 893.7418329819733, 893.7599720112297, 893.7798721330581, 893.8015333474585, 893.8249556544309, 893.8501390539753, 893.8770835460917, 893.9057891307801, 893.9362558080405, 893.9684835778729, 894.0024724402772, 894.0382223952536], ""Center_y"": [283.4753025583983, 283.5258140791356, 283.5743194554797, 283.6208186874305, 283.66531177498814, 283.7077987181525, 283.7482795169236, 283.7867541713015, 283.8232226812861, 283.8576850468775, 283.89014126807564, 283.92059134488056, 283.94903527729224, 283.97547306531067, 283.999904708942, 284.0398471140835, 284.0736094425967, 284.1218688666481, 284.14991558522433, 284.1658294401248, 284.1766216784143, 284.18070473366083, 284.1838636756952, 284.172782103578, 284.1471458410641, 284.1179390681065, 284.0832950191632, 284.0393679396922, 283.9904875787974, 283.94169521691384, 283.9111099987702, 283.88969187987266, 283.8649447534359, 283.8241856383698, 283.76416722284637, 283.702398343845, 283.63991607960077, 283.5852344580459, 283.55048473613266, 283.51541181560367, 283.4856337906377, 283.4515613644852, 283.42634482759235, 283.40834519837466, 283.38987294525396, 283.37456915091457, 283.3567320479607, 283.33816215548757, 283.3213334569336, 283.3070102583178, 283.29392436040655, 283.28093647263, 283.26585193425404, 283.2615428253676, 283.24699888765906, 283.23130515388084, 283.2212073909343, 283.21534668150406, 283.20866320603756, 283.1818442714188, 283.13676480040164, 283.0791290322642, 283.0232330985106, 282.9763746137745, 282.9325384995735, 282.90706266222344, 282.8955937461438, 282.8715880608144, 282.8497314299901, 282.8290402916882, 282.81991064145956, 282.8162307502224, 282.8111326164935, 282.80605054999995, 282.8017750175153, 282.8019299633399, 282.80410913361135, 282.80829580192596, 282.812832859562, 282.8166295884377, 282.8111601779816, 282.80248078112095, 282.77932838957474, 282.75661018416133, 282.7288992708008, 282.69187368681867, 282.6451481893523, 282.59147892720915, 282.5349288097948, 282.4814901742738, 282.42535570387463, 282.3740567297058, 282.3191174144172, 282.2723580521628, 282.21359016191445, 282.1428131257013, 282.0724365344271, 281.9984694104621, 281.922952292677, 281.8545207020207, 281.7883147942219, 281.726791661523, 281.66968652412754, 281.618106661729, 281.58046739175825, 281.54172183084694, 281.512453343227, 281.48064120628464, 281.45965368929046, 281.44271313806075, 281.42582387838945, 281.4109456185946, 281.39249944383255, 281.3815329378383, 281.36827660363974, 281.3556896551785, 281.3495019157149, 281.34514448152873, 281.34133728835116, 281.33979223829556, 281.32528846867496, 281.30943097269176, 281.28722444692244, 281.25614089729936, 281.2283775800332, 281.2021992337226, 281.1795755778086, 281.16687788901856, 281.15424694105167, 281.145527376103, 281.14740600668017, 281.15569818317255, 281.17031912001596, 281.171474477821, 281.1791460882523, 281.1822562106105, 281.19419330120496, 281.2030259547706, 281.21623631195763, 281.22449276975027, 281.23230379434546, 281.2398882709244, 281.237156346564, 281.23696687678273, 281.23854542084405, 281.24196044988867, 281.2519775058768, 281.2538240019836, 281.2580124830119, 281.2610566061116, 281.2626864417315, 281.25663144234943, 281.2503177604807, 281.246310715616, 281.2379791126003, 281.22790236065373, 281.21309257199965, 281.19978976641323, 281.17947521938567, 281.1455204548324, 281.1030626622234, 281.064800148319, 281.03963082437883, 281.0189168211654, 281.01224001978113, 281.0195968359967, 281.0403510072981, 281.06234149055115, 281.09350253368547, 281.1315598813557, 281.17997701150034, 281.23855642072044, 281.30292510197125, 281.3661370658818, 281.4306027685143, 281.49031294031016, 281.55583957484237, 281.61199962922376, 281.6590659992645, 281.70305660611166, 281.7456911383079, 281.78484921518344, 281.8135043875972, 281.83097021382395, 281.83507180818805, 281.82972178964894, 281.81490359659495, 281.80163280188475, 281.78544172537994, 281.77434865900995, 281.76157631578957, 281.7550824561404, 281.74336259029934, 281.7264167182663, 281.7042448400413, 281.6768469556244, 281.6442230650155, 281.6063731682147, 281.56329726522193, 281.51499535603836, 281.46447899159784, 281.3744128704126, 281.3065603715183, 281.24087063246475, 281.1623892083162, 281.11116740380487, 281.0482224679358, 280.9679144184002, 280.91080495356164, 280.8560064130928, 280.8049172932343, 280.728519460417, 280.62835957541034, 280.50883657673717, 280.3789181777986, 280.28587372844, 280.18065977443734, 280.07383104820997, 279.9638000884577, 279.8442773109256, 279.77039987837367, 279.70823363556076, 279.6700274214961, 279.6733497346319, 279.67402814020465, 279.69978129146523, 279.76977089783406, 279.84228505086367, 279.9267868199924, 279.99980694383135, 280.08244582043466, 280.18803471915203, 280.31484166298225, 280.45139517912554, 280.57550022114236, 280.6984177355165, 280.8068031844329, 280.8992770897845, 280.9743557607266, 281.0268585802754, 281.06347899159783, 281.08745013268594, 281.0934957430353, 281.0923542680242, 281.08402344095657, 281.0596015037606, 281.0319823087142, 280.99776957098754, 280.98070632463634, 280.97675232198264, 280.9863533834599, 281.0077514374183, 281.03234851835595, 281.04025961963856, 281.0420946483869, 281.0452551968168, 281.044941618754, 281.04488987173943, 281.04944803184554, 281.05655373728564, 281.06862273330506, 281.0901949579833, 281.11550461447746, 281.14455170278643, 281.1773362229103, 281.213858174849, 281.2541175586025, 281.29811437417084, 281.345848621554, 281.397320300752, 281.3112199975342, 281.33445482635636, 281.36720825609314, 281.40865035224937, 281.44272562106653, 281.4620637745704, 281.47654331974405, 281.495225064893, 281.51567828451977, 281.53816252626984, 281.56055913979105, 281.5793831417685, 281.5982921764985, 281.61455394883814, 281.63438400692735, 281.6526810035904, 281.6713199851748, 281.6819574836299, 281.6871124706525, 281.67554739835, 281.6612501544987, 281.6488131257013, 281.644469286868, 281.639758867884, 281.62482350760706, 281.60412853788773, 281.59111963911124, 281.5814471635211, 281.5796423186317, 281.5751892225991, 281.56773464343706, 281.5610692127116, 281.54585687801864, 281.53362810530825, 281.52576974416627, 281.5231533803052, 281.5259379557594, 281.5319965393709, 281.5363424793041, 281.5357997775367, 281.5358400692188, 281.538635150173, 281.54832974911005, 281.55801705599424, 281.5622617723457, 281.5610461006117, 281.55084439501286, 281.53507724632914, 281.51984031640706, 281.51317698678156, 281.5110228649177, 281.5027670250957, 281.49023075022234, 281.4780861451056, 281.46725250278695, 281.4543182548572, 281.43648770239145, 281.41434940057457, 281.38992089977125, 281.376468174521, 281.3566379928376, 281.3373083673278, 281.3147788901309, 281.29583487826585, 281.27787887777146, 281.26142924237416, 281.24977122729564, 281.2413304906747, 281.2392259300518, 281.2401454702817, 281.23946693857977, 281.2338908664009, 281.22183735014823, 281.208918551483, 281.1932077617166, 281.180715609943, 281.1670763811703, 281.1553680632863, 281.1397225312136, 281.12351526387954, 281.1036619700963, 281.0794204671918, 281.05951242121483, 281.03707180818805, 281.0143502657334, 280.9952508960634, 280.9690830552526, 280.93546347794455, 280.89734260289816, 280.8631630206463, 280.83213817822883, 280.81251143246186, 280.81293461871826, 280.8242495365281, 280.83667148684333, 280.8406784699109, 280.83764627364343, 280.82948961810024, 280.8205167470089, 280.81042819182414, 280.80258076876146, 280.7926488073229, 280.7817819799838, 280.76947157335917, 280.74870263256076, 280.72588165863914, 280.71120578421073, 280.7011530713199, 280.6847017674019, 280.67194506242106, 280.66282981090706, 280.65218730689026, 280.64500939315894, 280.6381455320788, 280.63247744407977, 280.63245241627106, 280.63954307255585, 280.65438060808907, 280.6717137560313, 280.69688190582735, 280.7249940674884, 280.7444620566122, 280.7544432085094, 280.7637072673401, 280.7729379557594, 280.78246941046217, 280.7918511926893, 280.78999876406493, 280.79106328019395, 280.7894309726918, 280.78679223829556, 280.7831694475404, 280.77921431220483, 280.7835708812321, 280.79771536275484, 280.81332480534536, 280.8296592510257, 280.84596625881215, 280.85808527994675, 280.8687473736311, 280.8758408107835, 280.88020961562836, 280.8949107650537, 280.90558657768497, 280.9192066493696, 280.9287141268137, 280.9285733531145, 280.9282945247867, 280.9271444815287, 280.93459782474963, 280.9442038067049, 280.95626548016924, 280.9660175503707, 280.9732089976578, 280.97101075269427, 280.9777788901309, 281.01055011742045, 281.0384881967679, 281.0596509702199, 281.0792007168519, 281.0956738351315, 281.1072642442281, 281.1166105549437, 281.1201467062229, 281.1107439129959, 281.09744679273876, 281.0879532178612, 281.0750232321628, 281.0586568356375, 281.03885402828547, 281.0156148101065, 280.98893918110076, 280.9588271412681, 280.92527869060865, 280.88829382912235, 280.8478725568092, 280.80401487366913, 280.7567207797023, 280.70599027490863, 280.6518233592881], ""Time_s"": [0.0, 0.0200445434298441, 0.0400890868596882, 0.060133630289532294, 0.0801781737193764, 0.1002227171492205, 0.12026726057906459, 0.1403118040089087, 0.1603563474387528, 0.1804008908685969, 0.200445434298441, 0.2204899777282851, 0.24053452115812918, 0.2605790645879733, 0.2806236080178174, 0.3006681514476615, 0.3207126948775056, 0.34075723830734966, 0.3608017817371938, 0.38084632516703787, 0.400890868596882, 0.4209354120267261, 0.4409799554565702, 0.4610244988864143, 0.48106904231625836, 0.5011135857461024, 0.5211581291759466, 0.5412026726057907, 0.5612472160356348, 0.5812917594654788, 0.601336302895323, 0.6213808463251671, 0.6414253897550112, 0.6614699331848553, 0.6815144766146993, 0.7015590200445435, 0.7216035634743876, 0.7416481069042317, 0.7616926503340757, 0.7817371937639199, 0.801781737193764, 0.8218262806236081, 0.8418708240534521, 0.8619153674832962, 0.8819599109131404, 0.9020044543429845, 0.9220489977728286, 0.9420935412026726, 0.9621380846325167, 0.9821826280623609, 1.0022271714922049, 1.022271714922049, 1.0423162583518932, 1.0623608017817372, 1.0824053452115814, 1.1024498886414256, 1.1224944320712695, 1.1425389755011137, 1.1625835189309577, 1.1826280623608019, 1.202672605790646, 1.22271714922049, 1.2427616926503342, 1.2628062360801782, 1.2828507795100224, 1.3028953229398665, 1.3229398663697105, 1.3429844097995547, 1.3630289532293987, 1.3830734966592428, 1.403118040089087, 1.423162583518931, 1.4432071269487752, 1.4632516703786191, 1.4832962138084633, 1.5033407572383075, 1.5233853006681515, 1.5434298440979957, 1.5634743875278398, 1.5835189309576838, 1.603563474387528, 1.623608017817372, 1.6436525612472161, 1.6636971046770603, 1.6837416481069043, 1.7037861915367485, 1.7238307349665924, 1.7438752783964366, 1.7639198218262808, 1.7839643652561248, 1.804008908685969, 1.824053452115813, 1.8440979955456571, 1.8641425389755013, 1.8841870824053453, 1.9042316258351895, 1.9242761692650334, 1.9443207126948776, 1.9643652561247218, 1.9844097995545658, 2.0044543429844097, 2.024498886414254, 2.044543429844098, 2.0645879732739423, 2.0846325167037865, 2.10467706013363, 2.1247216035634744, 2.1447661469933186, 2.1648106904231628, 2.184855233853007, 2.204899777282851, 2.224944320712695, 2.244988864142539, 2.2650334075723833, 2.2850779510022274, 2.3051224944320716, 2.3251670378619154, 2.3452115812917596, 2.3652561247216037, 2.385300668151448, 2.405345211581292, 2.425389755011136, 2.44543429844098, 2.4654788418708242, 2.4855233853006684, 2.5055679287305126, 2.5256124721603563, 2.5456570155902005, 2.5657015590200447, 2.585746102449889, 2.605790645879733, 2.625835189309577, 2.645879732739421, 2.665924276169265, 2.6859688195991094, 2.7060133630289536, 2.7260579064587973, 2.7461024498886415, 2.7661469933184857, 2.78619153674833, 2.806236080178174, 2.826280623608018, 2.846325167037862, 2.866369710467706, 2.8864142538975504, 2.9064587973273945, 2.9265033407572383, 2.9465478841870825, 2.9665924276169267, 2.986636971046771, 3.006681514476615, 3.026726057906459, 3.046770601336303, 3.066815144766147, 3.0868596881959913, 3.1069042316258355, 3.1269487750556797, 3.1469933184855234, 3.1670378619153676, 3.187082405345212, 3.207126948775056, 3.2271714922049, 3.247216035634744, 3.267260579064588, 3.2873051224944323, 3.3073496659242765, 3.3273942093541207, 3.3474387527839644, 3.3674832962138086, 3.387527839643653, 3.407572383073497, 3.427616926503341, 3.447661469933185, 3.467706013363029, 3.4877505567928733, 3.5077951002227175, 3.5278396436525616, 3.5478841870824054, 3.5679287305122496, 3.5879732739420938, 3.608017817371938, 3.628062360801782, 3.648106904231626, 3.66815144766147, 3.6881959910913142, 3.7082405345211584, 3.7282850779510026, 3.7483296213808464, 3.7683741648106905, 3.7884187082405347, 3.808463251670379, 3.828507795100223, 3.848552338530067, 3.868596881959911, 3.888641425389755, 3.9086859688195994, 3.9287305122494436, 3.9487750556792878, 3.9688195991091315, 3.9888641425389757, 4.008908685968819, 4.028953229398664, 4.048997772828508, 4.069042316258352, 4.089086859688196, 4.10913140311804, 4.129175946547885, 4.149220489977728, 4.169265033407573, 4.189309576837417, 4.20935412026726, 4.229398663697105, 4.249443207126949, 4.269487750556793, 4.289532293986637, 4.309576837416482, 4.3296213808463255, 4.349665924276169, 4.369710467706014, 4.389755011135858, 4.409799554565702, 4.429844097995546, 4.44988864142539, 4.469933184855234, 4.489977728285078, 4.510022271714923, 4.5300668151447665, 4.55011135857461, 4.570155902004455, 4.590200445434299, 4.610244988864143, 4.630289532293987, 4.650334075723831, 4.670378619153675, 4.690423162583519, 4.710467706013364, 4.7305122494432075, 4.750556792873051, 4.770601336302896, 4.79064587973274, 4.810690423162584, 4.830734966592428, 4.850779510022272, 4.870824053452116, 4.89086859688196, 4.910913140311805, 4.9309576837416484, 4.951002227171492, 4.971046770601337, 4.991091314031181, 5.011135857461025, 5.031180400890869, 5.051224944320713, 5.071269487750557, 5.091314031180401, 5.111358574610246, 5.131403118040089, 5.151447661469933, 5.171492204899778, 5.1915367483296215, 5.211581291759466, 5.23162583518931, 5.251670378619154, 5.271714922048998, 5.291759465478842, 5.311804008908687, 5.33184855233853, 5.351893095768374, 5.371937639198219, 5.3919821826280625, 5.412026726057907, 5.432071269487751, 5.452115812917595, 5.472160356347439, 5.492204899777283, 5.512249443207128, 5.532293986636971, 5.552338530066815, 5.57238307349666, 5.5924276169265035, 5.612472160356348, 5.632516703786192, 5.652561247216036, 5.67260579064588, 5.692650334075724, 5.712694877505569, 5.732739420935412, 5.752783964365256, 5.772828507795101, 5.7928730512249444, 5.812917594654789, 5.832962138084633, 5.853006681514477, 5.873051224944321, 5.893095768374165, 5.91314031180401, 5.933184855233853, 5.953229398663697, 5.973273942093542, 5.993318485523385, 6.01336302895323, 6.033407572383074, 6.053452115812918, 6.073496659242762, 6.093541202672606, 6.1135857461024505, 6.133630289532294, 6.153674832962139, 6.173719376391983, 6.193763919821826, 6.213808463251671, 6.233853006681515, 6.253897550111359, 6.273942093541203, 6.293986636971047, 6.3140311804008915, 6.334075723830735, 6.35412026726058, 6.374164810690424, 6.394209354120267, 6.414253897550112, 6.434298440979956, 6.4543429844098, 6.474387527839644, 6.494432071269488, 6.5144766146993325, 6.534521158129176, 6.554565701559021, 6.574610244988865, 6.594654788418708, 6.614699331848553, 6.634743875278397, 6.654788418708241, 6.674832962138085, 6.694877505567929, 6.7149220489977735, 6.734966592427617, 6.755011135857462, 6.775055679287306, 6.795100222717149, 6.815144766146994, 6.835189309576838, 6.855233853006682, 6.875278396436526, 6.89532293986637, 6.915367483296214, 6.935412026726058, 6.955456570155903, 6.9755011135857465, 6.99554565701559, 7.015590200445435, 7.035634743875279, 7.055679287305123, 7.075723830734967, 7.095768374164811, 7.115812917594655, 7.135857461024499, 7.155902004454344, 7.1759465478841875, 7.195991091314031, 7.216035634743876, 7.23608017817372, 7.256124721603564, 7.276169265033408, 7.296213808463252, 7.316258351893096, 7.33630289532294, 7.356347438752785, 7.3763919821826285, 7.396436525612472, 7.416481069042317, 7.436525612472161, 7.456570155902005, 7.476614699331849, 7.496659242761693, 7.516703786191537, 7.536748329621381, 7.556792873051226, 7.5768374164810695, 7.596881959910913, 7.616926503340758, 7.636971046770602, 7.657015590200446, 7.67706013363029, 7.697104677060134, 7.717149220489978, 7.737193763919822, 7.757238307349667, 7.77728285077951, 7.797327394209355, 7.817371937639199, 7.8374164810690425, 7.857461024498887, 7.877505567928731, 7.8975501113585755, 7.917594654788419, 7.937639198218263, 7.957683741648108, 7.977728285077951, 7.997772828507796, 8.017817371937639, 8.037861915367484, 8.057906458797328, 8.077951002227172, 8.097995545657016, 8.11804008908686, 8.138084632516705, 8.158129175946549, 8.178173719376392, 8.198218262806236, 8.21826280623608, 8.238307349665925, 8.25835189309577, 8.278396436525613, 8.298440979955457, 8.3184855233853, 8.338530066815146, 8.35857461024499, 8.378619153674833, 8.398663697104677, 8.41870824053452, 8.438752783964366, 8.45879732739421, 8.478841870824054, 8.498886414253898, 8.518930957683741, 8.538975501113587, 8.55902004454343, 8.579064587973274, 8.599109131403118, 8.619153674832964, 8.639198218262807, 8.659242761692651, 8.679287305122495, 8.699331848552339, 8.719376391982184, 8.739420935412028, 8.759465478841872, 8.779510022271715, 8.799554565701559, 8.819599109131405, 8.839643652561248, 8.859688195991092, 8.879732739420936, 8.89977728285078, 8.919821826280625, 8.939866369710469, 8.959910913140313, 8.979955456570156, 9.0]}","{""calibration"": {""video_file"": ""C:\\Users\\viole\\Documents\\Myo6\\Data_analysis\\Video_temoin\\ID_601\\26-04-2026_20h30min14sec\\video.mp4"", ""frame_index"": 10, ""circle"": {""x"": 894, ""y"": 283.5, ""r"": 51.5}, ""circle_local"": {""x"": 254, ""y"": 283.5}, ""crop_offset_x"": 640, ""iris_d_mm"": 11.5, ""conversion_coef"": 0.11165048543689321}, ""detector_params_left"": {""coarse_detection"": false, ""coarse_filter_min"": 20, ""coarse_filter_max"": 110, ""blur_size"": 5, ""canny_treshold"": 100, ""canny_ratio"": 2, ""canny_aperture"": 5, ""pupil_size_max"": 85, ""pupil_size_min"": 15, ""strong_perimeter_ratio_range_min"": 0.75, ""strong_perimeter_ratio_range_max"": 1.25, ""strong_area_ratio_range_min"": 0.66, ""strong_area_ratio_range_max"": 1.15, ""contour_size_min"": 40, ""ellipse_roundness_ratio"": 0.8, ""initial_ellipse_fit_treshhold"": 0.8, ""final_perimeter_ratio_range_min"": 0.7, ""final_perimeter_ratio_range_max"": 1.3, ""ellipse_true_support_min_dist"": 3, ""support_pixel_ratio_exponent"": 1.8}, ""detector_params_right"": {""coarse_detection"": false, ""coarse_filter_min"": 20, ""coarse_filter_max"": 110, ""blur_size"": 5, ""canny_treshold"": 100, ""canny_ratio"": 2, ""canny_aperture"": 5, ""pupil_size_max"": 85, ""pupil_size_min"": 15, ""strong_perimeter_ratio_range_min"": 0.75, ""strong_perimeter_ratio_range_max"": 1.25, ""strong_area_ratio_range_min"": 0.66, ""strong_area_ratio_range_max"": 1.15, ""contour_size_min"": 40, ""ellipse_roundness_ratio"": 0.8, ""initial_ellipse_fit_treshhold"": 0.8, ""final_perimeter_ratio_range_min"": 0.7, ""final_perimeter_ratio_range_max"": 1.3, ""ellipse_true_support_min_dist"": 3, ""support_pixel_ratio_exponent"": 1.8}, ""stats"": {""frames"": 450, ""total_s"": 15.253107100026682, ""lost_left"": 0, ""lost_right"": 3}, ""clean_window_size"": 35, ""metric_window_size"": 15, ""dataset"": ""Video_temoin""}",C:\Users\viole\Documents\Myo6\Data_analysis\Video_temoin\ID_601\26-04-2026_20h30min14sec\video.mp4,0.1116504854368932,24.7885558965617,12.8535,11.91149943351373,34.652,9.73,0.225,846,962,1072,0.55,1.14,24.4928,0.6902151973320955,1.29,6.435,11.119,3.262,1792,24.8254,11.972,2.9499,2.9499,1.365,0.5488,35.316,9.791,2.085,0.1742,6.467,11.207,3.277,0.455,0.038
601,2026-05-07,,F,,,right,droite,450,"{""Width"": [44.00000000000001, 44.00000000000001, 44.00000000000001, 44.0, 44.0, 44.0, 44.0, 44.0, 44.0, 44.0, 44.0, 44.0, 44.0, 44.0, 44.00000000000095, 44.00000000000095, 44.00000000000095, 44.00000000000095, 44.00000000000095, 44.00000000000095, 44.00000000000095, 44.00000000000095, 44.00000000000095, 44.00000000000095, 44.00000000000095, 44.00000000000095, 44.00000000000095, 44.00000000000095, 44.00000000000095, 43.99276974416113, 43.98109010011218, 43.96753594528995, 43.9544761669354, 43.94407366209463, 43.93828533761888, 43.93886211016451, 43.947348906193014, 43.96508466197104, 43.993202323570344, 44.03262884686784, 44.08408519754555, 44.15531660693046, 44.24385119268419, 44.34721707246831, 44.462942363944435, 44.588555184774165, 44.7215836526191, 44.85955588514084, 45.00000000000098, 45.140444114861104, 45.278416347382844, 45.41144481522778, 45.53705763605751, 45.652782927533636, 45.75614880731776, 45.84468339307148, 45.9159148024564, 45.9673711531341, 46.006797676431596, 46.034915338030906, 46.05009923880664, 46.05446380752375, 46.050256760720366, 46.0398591027077, 46.025785125570195, 46.010682409165376, 45.99733182112396, 45.98864751684978, 45.98767693951985, 45.997600820084315, 46.01151606360108, 46.02967712854615, 46.05226577097383, 46.07939104451669, 46.1110893003856, 46.14732418736969, 46.18798665183637, 46.23544679273366, 46.288468668892364, 46.34581633914326, 46.40625386231716, 46.468545297244845, 46.53145470275716, 46.59374613768485, 46.65418366085875, 46.71153133110965, 46.76455320726834, 46.81201334816564, 46.85267581263233, 46.88891069961642, 46.92060895548533, 46.94773422902818, 46.97032287145586, 46.98848393640094, 47.002399179917695, 47.01232306048216, 47.01858273899205, 47.02157807876682, 47.021781645547634, 47.01973870749737, 47.01606723520062, 47.011457901663725, 47.0066740823147, 47.00255185500331, 47.000000000001016, 47.000000000001016, 47.000000000001016, 47.000000000001016, 47.000000000001016, 47.000000000001016, 47.000000000001016, 47.000000000001016, 47.000000000001016, 47.000000000001016, 47.000000000001016, 47.000000000001016, 47.000000000001016, 47.000000000001016, 47.000000000001016, 47.000000000001016, 47.000000000001016, 47.000000000001016, 47.000000000001016, 47.000000000001016, 47.000000000001016, 47.000000000001016, 47.000000000001016, 47.000000000001016, 47.000000000001016, 47.000000000001016, 46.99744814499873, 46.993325917687336, 46.988542098338314, 46.983932764801416, 46.98026129250467, 46.978218354454405, 46.97842192123522, 46.98141726100998, 46.98767693951987, 46.99760082008434, 47.01151606360109, 47.02967712854617, 47.052265770973854, 47.07939104451671, 47.111089300385615, 47.1473241873697, 47.18798665183639, 47.23544679273368, 47.288468668892385, 47.34581633914328, 47.40625386231718, 47.46854529724488, 47.53145470275717, 47.59374613768488, 47.65418366085877, 47.71153133110967, 47.76455320726837, 47.81201334816566, 47.84996446669242, 47.88181948715816, 47.90843493496872, 47.93066279162862, 47.94935049474101, 47.965340938007685, 47.97947247122906, 47.99257890030421, 48.00548948723086, 48.019028950105366, 48.03401746312274, 48.05127065657662, 48.071599616859274, 48.09581088646166, 48.124706463973354, 48.159083804082556, 48.20244716351606, 48.254542083797865, 48.31158076875646, 48.37232727722265, 48.43554566802725, 48.50000000000106, 48.56445433197485, 48.62767272277945, 48.688419231245646, 48.74545791620424, 48.79755283648604, 48.843468050921835, 48.88196761834242, 48.915647015203135, 48.94446761834243, 48.968468050921835, 48.999999999999986, 48.999999999999986, 48.999999999999986, 48.999999999999986, 48.999999999999986, 48.999999999999986, 48.999999999999986, 48.999999999999986, 48.999999999999986, 49.00000000000021, 49.00000000000021, 49.00000000000021, 49.00000000000021, 49.03508771929846, 49.08333333333355, 49.12538699690424, 49.14447884416946, 49.126418988648304, 49.05959752322003, 48.934984520124054, 48.74613003095997, 48.48916408668752, 48.16279669762663, 47.76831785345738, 47.30959752322003, 46.81814831195657, 46.287335987026594, 45.65479876161011, 44.96034203154966, 44.30392156862765, 43.64263600176932, 43.01131505233692, 42.38629662391291, 41.77753206545795, 41.19349845201256, 40.64119858469722, 40.12616099071225, 39.65243992333793, 39.20757776794946, 38.802078726227506, 38.443867020492576, 38.13828689370502, 37.88810260946501, 37.693498452012555, 37.50950906678477, 37.31180893410012, 37.173816895179286, 37.10880141530313, 37.02786377708995, 36.97445820433453, 36.945820433436694, 36.9380804953562, 36.946262715612725, 36.96428571428588, 36.9849624060152, 37.00000000000016, 37.00000000000016, 37.00000000000016, 37.00000000000016, 37.00000000000016, 37.00000000000016, 37.00000000000016, 37.00000000000016, 37.00000000000016, 37.00000000000016, 37.00000000000016, 37.00000000000016, 37.00000000000016, 37.00000000000016, 37.00000000000016, 37.00000000000016, 37.00000000000001, 37.00000000000001, 37.00000000000001, 37.000000000000014, 37.000000000000014, 37.000000000000014, 37.00000000000002, 37.00000000000003, 37.00000000000003, 36.908293165246135, 36.921023359288895, 36.95847237671567, 36.97478680014912, 37.02756148807397, 37.11308861698264, 37.22766036336751, 37.367568903720986, 37.52910641453548, 37.70856507230337, 37.858855518478144, 38.03633667037531, 38.23606476331809, 38.453096032629674, 38.68248671363327, 38.91929304165206, 39.15857125200925, 39.39537758002805, 39.5813867259927, 39.77172166604956, 39.96020269435262, 40.14065010505587, 40.30688419231332, 40.468050920777046, 40.6227598566317, 40.76992955135424, 40.86540600667497, 40.96879248547858, 41.07869855394972, 41.19404276356535, 41.40081572117257, 41.47633172661071, 41.599555061179984, 41.72339636633386, 41.844147818564736, 41.95810159436502, 42.06154987022708, 42.150784822643345, 42.22209862810621, 42.28970461006148, 42.36781609195494, 42.45272525027901, 42.540724261526066, 42.628105302188544, 42.70634037819893, 42.77357557780343, 42.82781966245167, 42.92824674878902, 43.03044535080223, 43.133248190720394, 43.235350663976, 43.33531083920499, 43.43154945824673, 43.52717010670386, 43.618464961068796, 43.76302887982627, 43.91500844559894, 44.071931776048416, 44.231326988836294, 44.26811683763949, 44.38672599184375, 44.497919499032804, 44.59922547686827, 44.68817204301172, 44.762287315124766, 44.819099410869015, 44.85613644790605, 44.87092654389748, 44.92230049849725, 44.96564083549721, 44.99971161372817, 45.02327689202092, 45.03510072920626, 45.038047247285334, 45.034051895797404, 45.02511020475524, 45.0132777846451, 45.00067032642677, 44.989463601533544, 44.98189346187219, 44.980255839823, 44.98690674823976, 44.99745087133951, 45.012235817576055, 45.031531949080204, 45.0555323816596, 45.0843529847989, 45.1180323816596, 45.156531949080204, 45.202447163516, 45.25454208379779, 45.31158076875639, 45.37232727722259, 45.43554566802719, 45.50000000000099, 45.56445433197479, 45.62767272277939, 45.68841923124558, 45.74545791620418, 45.79755283648598, 45.84346805092177, 45.88196761834236, 45.91564701520307, 45.944467618342365, 45.96846805092177, 45.98776418242591, 46.00254912866247, 46.013093251762214, 46.01974416017897, 46.02292670868966, 46.02314299839427, 46.02097237671587, 46.017071437400574, 46.01217402051762, 46.00709121245929, 46.00271134594093, 46.000000000000995, 46.000000000000995, 46.000000000000995, 46.000000000000995, 46.000000000000995, 46.000000000000995, 46.000000000000995, 46.000000000000995, 46.000000000000995, 46.000000000000995, 46.000000000000995, 45.99517982944111, 45.98739340007515, 45.97835729686033, 45.9696507779573, 45.96271577473012, 45.95885689174628, 45.9592414067767, 45.964899270795705, 45.97672310798106, 46.08705145635168, 46.131133358053155, 46.08350842499996, 46.107691673877326, 46.09776294648475, 46.11255304247618, 46.14959007951322, 46.20640217525746, 46.28051744737051, 46.36946401351397, 46.47076999134942, 46.581963498538485, 46.70057265274274, 46.8241255716238, 46.95015037284326, 47.07617517406273, 47.15634655790487, 47.29164091789333, 47.4182836896974, 47.53380299097866, 47.64253834850898, 47.744146445296906, 47.83842129114758, 47.88191268762377, 47.97813757398585, 48.065999258436335, 48.14584105796668, 48.21814361636491, 48.32690643925453, 48.28340131009869, 48.288712325864715, 48.282970496318654, 48.26617582145947, 48.23832830128714, 48.19942793580168, 48.14947472500309, 48.08846866889136, 48.0164097674665, 47.9332980207285, 47.83913342867737, 47.733915991313104, 47.617645708635706, 47.49032258064517, 47.3519466073415], ""Height"": [46.00000000000001, 46.00000000000001, 46.000000000000014, 46.000000000000014, 46.000000000000014, 46.000000000000014, 46.000000000000014, 46.000000000000014, 46.00000000000002, 46.00000000000002, 46.00000000000002, 46.00000000000002, 46.00000000000002, 46.00000000000002, 46.000000000000995, 46.000000000000995, 46.000000000000995, 46.000000000000995, 46.000000000000995, 46.000000000000995, 46.000000000000995, 46.000000000000995, 46.000000000000995, 46.000000000000995, 46.000000000000995, 46.000000000000995, 45.993802637852575, 45.983791514382055, 45.97217366739157, 45.9609795716591, 45.95206313893844, 45.94710171795922, 45.9475960944269, 45.95487049102277, 45.97007256740393, 45.99417342020334, 46.027967583029756, 46.0720730264678, 46.12693115807788, 46.19280682239626, 46.275985663083446, 46.37399579780103, 46.48436534421062, 46.604622419973815, 46.73229514275222, 46.864911630207416, 47.000000000001016, 47.135088369794616, 47.267704857249825, 47.395377580028224, 47.51563465579141, 47.626004202201, 47.72401433691859, 47.80719317760578, 47.873068841924166, 47.92792697353424, 47.97203241697227, 48.00582657979871, 48.029927432598114, 48.04512950897927, 48.05240390557513, 48.05289828204282, 48.047936861063604, 48.03902042834294, 48.02782633261046, 48.016208485619984, 48.006197362149464, 48.00000000000104, 48.00000000000104, 48.00000000000104, 48.00000000000104, 48.00000000000104, 48.00000000000104, 48.00000000000104, 48.00000000000104, 48.00000000000104, 48.00000000000104, 48.00000000000104, 48.00000000000104, 48.00000000000104, 48.00000000000104, 48.00000000000104, 48.00000000000104, 48.00000000000104, 48.00000000000104, 48.00000000000104, 48.00000000000104, 48.00000000000104, 48.00000000000104, 48.00000000000104, 48.00000000000104, 48.00000000000104, 48.00000000000104, 48.00000000000104, 48.00000000000104, 48.00000000000104, 48.00000000000104, 48.00000000000104, 47.98553948832139, 47.962180200223514, 47.93507189057905, 47.92341284554959, 47.969348659004865, 48.011576648952556, 48.03563630371299, 48.04708935854758, 48.05108556832799, 48.066823219215806, 48.093066370041825, 48.12857907963685, 48.17212540683167, 48.2224694104571, 48.27837514934393, 48.338606682322975, 48.401928068225, 48.46710336588084, 48.532896634121265, 48.5980719317771, 48.66139331767913, 48.72162485065816, 48.77753058954499, 48.82787459317043, 48.871420920365246, 48.90693362996027, 48.93317678078629, 48.948914431674105, 48.95291064145453, 48.96436369628912, 48.988423351049555, 49.03065134099723, 49.076587154452504, 49.06492810942306, 49.037819799778596, 49.0144605116807, 49.00000000000106, 49.00000000000106, 49.00000000000106, 49.00000000000106, 49.00000000000106, 49.00000000000106, 49.00000000000106, 49.00000000000106, 49.00000000000106, 49.00000000000106, 49.00000000000106, 49.00000000000106, 49.00000000000106, 49.00000000000106, 48.99690131892685, 48.99189575719159, 48.98608683369634, 48.98048978583011, 48.976031569469775, 48.97355085898017, 48.97379804721401, 48.97743524551195, 48.98503628370252, 48.99708671010223, 49.013983791515436, 49.03603651323446, 49.0634655790395, 49.096403411198686, 49.137992831542284, 49.18699789890108, 49.24218267210586, 49.302311209987465, 49.366147571376665, 49.43245581510428, 49.50000000000107, 49.56754418489787, 49.633852428625474, 49.697688790014666, 49.75781732789626, 49.81300210110106, 49.862007168459854, 49.90359658880345, 49.93653442096264, 49.963963486767675, 49.986016208486696, 50.00291328989991, 50.01496371629961, 50.0225647544902, 50.02620195278813, 50.02644914102197, 50.023968430532356, 50.01951021417203, 50.01391316630579, 50.00810424281055, 50.00309868107529, 50.00000000000108, 49.99999999999999, 49.99999999999999, 49.999999999999986, 49.999999999999986, 49.999999999999986, 49.999999999999986, 49.999999999999986, 49.999999999999986, 49.999999999999986, 50.00000000000022, 50.00000000000022, 50.00000000000022, 50.00000000000022, 50.00000000000022, 50.00000000000022, 50.00000000000022, 50.00000000000022, 50.04921394395101, 50.116883116883336, 50.175867476177295, 50.20264565156228, 50.177314945117026, 50.083591331269574, 49.90880945679729, 49.64392264082689, 49.28350287483437, 48.82574082264507, 48.27244582043366, 47.57983193277333, 46.84785493144648, 46.0185758513934, 45.13622291021692, 44.18487394958004, 43.42680229986751, 42.7063246351174, 42.0720919946928, 41.50420168067245, 41.003910176510985, 40.56996099875375, 40.19858469703689, 39.86846126010231, 39.58019380000822, 39.330766756463525, 39.1135458968278, 38.918278316111305, 38.73109243697496, 38.53449800973038, 38.390977443609195, 38.21163202122971, 38.06545776205236, 37.96130030959769, 38.01017249004882, 37.960858027421665, 37.9380804953562, 37.946262715612725, 37.96428571428588, 37.98496240601521, 38.00000000000017, 38.00000000000017, 38.00000000000017, 38.00000000000017, 38.00000000000017, 38.00000000000017, 38.00000000000017, 38.00000000000017, 38.00000000000017, 38.00000000000017, 38.00000000000017, 38.00000000000017, 38.00000000000017, 38.00000000000017, 38.00000000000001, 38.00000000000001, 38.000000000000014, 38.000000000000014, 38.00000000000002, 38.00000000000002, 38.00000000000003, 38.000000000000036, 38.00000000000004, 37.89420343591727, 37.895192188852626, 37.9221357063412, 37.97256210604457, 38.043999505624356, 38.09059448770321, 38.16994191076588, 38.278333951304745, 38.412062785812225, 38.56742059078071, 38.7406995427026, 38.9281918180703, 39.082808058337264, 39.26090718081904, 39.41416388579989, 39.64108268446508, 39.87541713014547, 40.11222345816426, 40.34655790384465, 40.530095167470904, 40.717958225189356, 40.90396737115402, 41.08194289951887, 41.245705104437924, 41.40658933206297, 41.56388933029734, 41.717251973092694, 41.86667726044903, 41.96913678337573, 42.085403534792654, 42.215300951675616, 42.34149054505097, 42.45902855024193, 42.47620813249382, 42.656284760846304, 42.8295637127682, 42.992337164751895, 43.09751575825084, 43.20145841058059, 43.34260289210327, 43.41255716228002, 43.52898282041869, 43.60140897293383, 43.79087875417225, 43.92893338277193, 44.05524657026421, 44.166110493141474, 44.25781732789615, 44.387961933012946, 44.51069089111454, 44.58015078482361, 44.697318007663796, 44.79841799530439, 44.88097886540699, 44.942528735633154, 44.980595723644534, 44.99270794710269, 45.03769620566159, 45.02756148807414, 45.021134593994304, 45.015943641083666, 45.009516747003815, 45.12198739340104, 45.14398714621282, 45.15980719317858, 45.166975651959945, 45.224323322210836, 45.287232727723136, 45.2931652453353, 45.30095167470127, 45.36942281547496, 45.497342726487204, 45.58002719070671, 45.61624026696428, 45.664812754913854, 45.72327277221704, 45.78914843653541, 45.85996786553059, 45.933259176864176, 46.0678531701901, 46.15782968730788, 46.24409838091807, 46.32418736868225, 46.39562476826203, 46.45593869731901, 46.502657273514785, 46.40316400939415, 46.439871462119406, 46.5477691261906, 46.663082437277, 46.78333951304019, 46.906068471141786, 47.02879742924339, 47.14905450500658, 47.26436781609298, 47.372265480164174, 47.470275614881764, 47.55592633790735, 47.68804844889486, 47.76072178964385, 47.81485601285483, 47.891360771228335, 47.989000123595154, 48.06439253491638, 48.117538005192, 48.148436534422004, 48.15708812260641, 48.14349276974521, 48.1076504758384, 48.04956124088598, 47.96922506488795, 47.866641947844315, 47.741811889755084, 47.594734890620245, 47.42541095043978, 47.41774811519074, 47.38400692127157, 47.30873810406727, 47.23655913978597, 47.16870596959687, 47.10641453466917, 47.05092077617207, 47.00346063527478, 46.96527005314649, 46.85082190087853, 46.868248671364256, 46.89618094178819, 46.892473118280584, 46.9184278828338, 46.968622543567946, 46.98384006921372, 47.00815721171774, 47.04211469534152, 47.08609875170044, 47.14034111976372, 47.20491904585444, 47.27975528364952, 47.370040786059604, 47.4733036707463, 47.587072055371195, 47.70887405759589, 47.836237795081985, 47.96669138549109, 48.09776294648479, 48.22698059572469, 48.351872450872385, 48.469966629589486, 48.57879124953758, 48.67587442837826, 48.75874428377315, 48.82492893338383, 48.8719564948719, 48.897355085898965, 49.0212581881113, 49.034297367446364, 49.020763811643626, 49.039488320357016, 49.04585341737839, 49.04628599678761, 49.04194475343079, 49.03414287480022, 49.02434804103431, 49.01418242491763, 49.00542269188093, 49.00000000000106, 49.00000000000106, 49.00000000000002, 49.00000000000002, 49.00000000000002, 49.00000000000002, 49.00000000000002, 49.00000000000002, 49.00000000000002, 49.00000000000002, 49.00000000000002, 49.00000000000002, 49.00000000000002, 49.00000000000002, 49.000000000000014, 49.000000000000014], ""Area"": [1553.6745399332597, 1557.6622365485464, 1561.3771703056311, 1564.8193412045134, 1567.9887492451935, 1570.8853944276714, 1573.509276751947, 1575.8603962180205, 1577.9387528258917, 1579.7443465755607, 1581.2771774670273, 1582.5372455002919, 1583.524550675354, 1584.239092992214, 1584.6808724509058, 1582.739447966911, 1580.549363243144, 1578.0176206278923, 1575.8649923371986, 1574.1183070696175, 1572.545790508006, 1571.3173761587288, 1570.5560545050394, 1570.359355271323, 1572.6553791867848, 1574.0699393771197, 1576.0639736744872, 1578.4729345569494, 1580.3013276480383, 1583.3947741317857, 1586.74863601536, 1590.246904399985, 1594.0073510073266, 1597.735655605028, 1602.7184141639204, 1606.9983111482238, 1611.4639284390412, 1616.0266150661578, 1621.685771474513, 1622.9205814485583, 1629.327424545827, 1635.5852127673077, 1641.7983512545159, 1647.097961902149, 1651.8487674577048, 1656.2414327030392, 1660.9008835125808, 1667.0121187121854, 1674.440532752477, 1682.8315687801623, 1691.8080603757628, 1698.5513353108759, 1707.1703123841676, 1715.1598105302558, 1722.0794589667905, 1728.251553454493, 1733.0288637375234, 1739.2537250031273, 1744.1649022988884, 1748.2789661352497, 1751.6988595353241, 1754.810302434842, 1756.531151341034, 1758.440817204339, 1759.9133045977392, 1760.8238865406388, 1760.582619268361, 1760.1587079471396, 1763.7629689161176, 1763.1772774688307, 1762.6771978124225, 1761.2344445680767, 1759.9990037696589, 1759.5100097330749, 1760.0694642195413, 1761.8190615499084, 1763.2059510567683, 1764.1813946978507, 1764.4852150538015, 1763.8723968607476, 1765.463249412966, 1765.4315417130529, 1765.0116020269818, 1764.4497797553217, 1763.9896971326548, 1764.6053456927832, 1764.284826535695, 1764.1326588802756, 1763.8924770115323, 1763.7625171178233, 1764.7266989865666, 1766.7196169818699, 1767.957648807355, 1769.180674823917, 1770.0342964405277, 1770.875432085071, 1771.2309185515153, 1771.9794155234595, 1772.4454356693004, 1772.8211227289967, 1773.1996064763703, 1773.779443826512, 1774.2637191942051, 1774.5071291558907, 1774.7252017056373, 1774.9134433321358, 1775.0971862563724, 1775.2659945618973, 1775.3855975775941, 1775.5593403782364, 1775.1229321468682, 1774.6450311457556, 1774.3285773081584, 1773.7731673464727, 1772.9550881844407, 1772.347577678941, 1771.6660367074912, 1771.5267219132752, 1772.1798995798183, 1772.2541823013607, 1772.755506179744, 1773.9159535286503, 1775.2094566185035, 1776.248567173441, 1777.6742552836872, 1779.7032706711545, 1782.5869825732682, 1786.3486075887174, 1790.1229165740097, 1794.1844982079242, 1798.3609499444217, 1802.441073785727, 1806.4679089111748, 1810.6095291064535, 1814.6141612285646, 1818.2898977877048, 1821.9093712149695, 1825.0061798912766, 1827.5993191818466, 1829.9172495983585, 1831.2200986899418, 1833.1526920652975, 1833.7257693116205, 1835.0965467186156, 1836.187757199397, 1836.408164194824, 1836.7652886540998, 1837.2310475219776, 1837.6443340749377, 1837.8962093066766, 1837.4275946113364, 1836.8597579409618, 1836.776447410743, 1836.9794938203338, 1837.222586948501, 1837.097816400979, 1836.7709988876925, 1836.4229597701546, 1836.3587793845409, 1836.5791692621826, 1837.1618144852705, 1837.382526819963, 1838.8287126437178, 1840.7047829069736, 1839.6373155976173, 1843.6553608330642, 1847.3938611420494, 1852.2301978742212, 1857.348704177521, 1863.2675359041314, 1868.0756638858397, 1871.943435051332, 1877.779882276644, 1884.157411321262, 1890.8191857002016, 1896.8870912124994, 1902.2809578544473, 1903.6964496354387, 1909.0224482759031, 1913.7188739340422, 1917.6397335311258, 1920.7230824373175, 1922.9324831294446, 1924.741421208792, 1925.9968526758544, 1926.622741317555, 1926.5210325052942, 1926.1464638487623, 1925.392559634203, 1924.3469709554242, 1928.0458090225566, 1927.8904025062657, 1927.7863212148018, 1927.7335651481644, 1927.732134306354, 1927.7820286893702, 1927.8832482972134, 1928.0357931298834, 1928.23966318738, 1928.4948584697122, 1926.9882370632545, 1932.7315232198225, 1933.3067014595397, 1935.4099155241129, 1939.3781954887304, 1940.534797434772, 1939.480392746581, 1940.3640815568417, 1941.3598220698889, 1940.9001956656432, 1938.22246572314, 1931.3727209199556, 1919.3211167182749, 1901.2897953118177, 1876.9822766032812, 1848.4812618310566, 1816.9206786820075, 1773.8822096417598, 1719.1369604157537, 1663.4059394073502, 1605.2017507740018, 1547.2137903582566, 1489.8704486952754, 1432.3751088014226, 1380.6951815568402, 1338.070579389657, 1300.7942766917354, 1268.2021622291081, 1239.8283136222967, 1218.1075900044284, 1200.2538199911596, 1185.8499754975726, 1174.1267887218096, 1164.4576672268959, 1153.5754781070373, 1143.8186249447197, 1134.967278637776, 1126.70514329943, 1117.7422255639146, 1111.6842640424638, 1105.257203892088, 1101.907472357369, 1099.4618376824465, 1098.009674038041, 1097.9911132242419, 1098.1348942945647, 1098.9636603272938, 1102.3605218929727, 1104.8984073418892, 1107.9345466607747, 1110.669047324198, 1115.0596116762545, 1118.359965059713, 1123.0738018575898, 1125.4103657673645, 1126.7818000884613, 1126.9311061477272, 1127.3053029632956, 1122.6832826183154, 1120.1229938080546, 1119.90742989828, 1118.1683594279814, 1116.0360252100836, 1113.5104272445817, 1110.5915655314755, 1107.279440070765, 1103.5740508624501, 1099.475397906531, 1094.9834812030078, 1090.09830075188, 1088.6809361018652, 1089.490606229167, 1090.9694785564443, 1094.5119761463593, 1100.3122363119753, 1106.8781463354585, 1114.9558661475955, 1124.2702160425406, 1134.615879742949, 1145.4628396984551, 1156.2178854282786, 1167.7255721171923, 1181.5123283895941, 1197.0207204301335, 1208.5135787912757, 1221.4426976888165, 1234.992206278608, 1247.1106505994585, 1258.6188710913634, 1269.8058942034634, 1280.7364716351778, 1291.2040849091863, 1301.1148917315818, 1311.1300473365754, 1320.328985663111, 1329.8391348412104, 1338.6189393153177, 1347.4505540724554, 1355.598268199263, 1363.2636423186552, 1373.5702565814163, 1381.5266206896852, 1389.1471305154175, 1394.313466938604, 1403.3619898653128, 1412.3396268693914, 1421.2384830058395, 1429.8121757508652, 1437.9479192930728, 1445.94763700411, 1453.359988876561, 1460.543636880516, 1465.3156865653511, 1473.8791738969542, 1481.0108997652032, 1487.8498670127624, 1494.5188588555507, 1500.5841233469612, 1506.4925786676881, 1512.0022525028137, 1516.2949128661805, 1521.0575250278416, 1525.454683969876, 1530.0054943765008, 1534.1078661476045, 1538.4544051415485, 1542.770610431377, 1546.9562575701732, 1551.082139043415, 1551.8547041157176, 1554.9436691385827, 1558.2813041651555, 1565.3794708936193, 1569.917608824654, 1572.963064516163, 1577.5538944506584, 1581.9219836856107, 1585.6602422445035, 1589.2951200099221, 1590.7119744160523, 1594.2316426894427, 1599.822214065045, 1603.795134717622, 1607.4289068100707, 1610.8322340872924, 1613.903528612073, 1616.7061275491635, 1619.600508342638, 1622.3487280929778, 1625.745407860621, 1628.741043196179, 1631.6655577802849, 1634.4806600544168, 1637.7936787789258, 1641.4248128167453, 1644.370411568445, 1642.058231430019, 1645.1856169200703, 1652.3051486219613, 1659.2016538747114, 1666.3383441478547, 1673.598912927981, 1680.4374940675186, 1689.3994253491899, 1697.1865554937954, 1704.5792827215796, 1711.9724027314671, 1718.7233869114202, 1727.5914398097025, 1733.9114480905084, 1740.0800555555934, 1745.5896065381667, 1750.2264405512678, 1754.0082135088749, 1756.332479854197, 1757.4386690767897, 1757.1290916450757, 1755.362176307046, 1752.6578344457184, 1749.124703930331, 1744.6211229761843, 1739.451833209777, 1733.5985824991108, 1726.3379539612285, 1718.8588576196146, 1719.1186589420713, 1717.5647374861328, 1713.2498416759731, 1709.67362031891, 1705.9050946731304, 1702.6186150043627, 1699.7999462365958, 1698.0578167099613, 1696.6481150661593, 1693.238978989037, 1693.1622288963413, 1693.325334322123, 1693.6748462489554, 1693.7219913484487, 1695.7110326288835, 1698.1054990730806, 1700.3457907551967, 1702.7004632307871, 1705.1506009146335, 1708.2141459646891, 1711.8939959214313, 1717.5255340502165, 1721.4161135830307, 1724.5280123594491, 1728.3156415770984, 1732.3244559387347, 1736.7800064269315, 1742.0649257199734, 1747.658787788939, 1753.04902558402, 1758.5689955506496, 1764.0304104561005, 1769.2058628105683, 1772.887017550403, 1778.5979186751097, 1784.7479029786568, 1790.490744530999, 1792.5765057471654, 1801.6857741935873, 1808.4605698925125, 1815.030857866805, 1821.584338029949, 1829.674529848019, 1835.878817575123, 1841.0677439748265, 1846.055898776458, 1849.0710270053546, 1854.451491904625, 1859.270752502821, 1864.1467625757418, 1865.6604546409994, 1866.987908490916, 1867.729804030934, 1867.8861412610133, 1867.4569201811541, 1866.442140791356, 1864.841803091619, 1862.6559070819437, 1859.8844527623296, 1856.5274401327765, 1852.584869193285, 1848.0567399438544, 1842.9430523844853, 1837.2438065151775, 1830.959002335931], ""Center_x"": [415.0891053392658, 415.09786823454635, 415.10595234210854, 415.11335766195253, 415.1200841940782, 415.12613193848557, 415.1315008951747, 415.1361910641455, 415.14020244539813, 415.1435350389324, 415.1461888447484, 415.1481638628461, 415.14946009322557, 415.1500775358867, 415.1500161908383, 415.1466276109347, 415.1419190458624, 415.1354333209829, 415.1294498825946, 415.123173464352, 415.1164589049651, 415.1138479174482, 415.1106135212054, 415.1079098998977, 415.11913904339053, 415.124185020402, 415.1311066617318, 415.1377881596926, 415.1497076999225, 415.16571326165774, 415.1794952416355, 415.1937834631162, 415.21224434557814, 415.2292989741778, 415.26138623162433, 415.2840349771441, 415.3052371771194, 415.3229436410917, 415.34276838463387, 415.35321628971354, 415.3584199728183, 415.35723519961346, 415.3489907304503, 415.33471252009303, 415.31593721419756, 415.2908905574185, 415.2442887158661, 415.2235305277559, 415.220611049323, 415.1873447657981, 415.15081856384535, 415.1207180941877, 415.0956293165335, 415.07524788036994, 415.0574720059415, 415.0411706834845, 415.0368603386569, 415.02224088494285, 415.0055282412647, 414.9915304659588, 414.9763084909248, 414.95470226178134, 414.9230807069673, 414.9025828698643, 414.87804288716757, 414.8516214312288, 414.82311135830827, 414.7890008651678, 414.7555284884529, 414.71591570882117, 414.673280187872, 414.6312747497309, 414.5878390804687, 414.54495698925626, 414.50739636634194, 414.50241750093596, 414.48126622173686, 414.4372627611016, 414.42258880238194, 414.4177644296221, 414.41928196762734, 414.4248808799991, 414.4300737115403, 414.43567012731097, 414.4442783339603, 414.4429395624858, 414.44769793598715, 414.4513274008247, 414.4541286614847, 414.4490362130852, 414.44746718577096, 414.46076022742216, 414.463169200355, 414.4639745396209, 414.4615535368606, 414.45651159725696, 414.4465325052617, 414.428078193887, 414.4140732707213, 414.39789037202723, 414.3803575783882, 414.36487039097835, 414.3510637127763, 414.3355052115608, 414.323150146262, 414.3184749722003, 414.31029497796794, 414.3014290363868, 414.2944678037415, 414.281641659466, 414.26494936761907, 414.2476136447995, 414.2301083508514, 414.2085824166859, 414.1847670250986, 414.16068491740685, 414.1352066905705, 414.1087561488162, 414.0836778725422, 414.05362184320916, 414.0186996663049, 413.97994747250925, 413.93806797677325, 413.88413916698465, 413.8196978123931, 413.76494833766805, 413.7231190829406, 413.69094747250927, 413.6721936101932, 413.6612973674542, 413.65672481770764, 413.6579846125414, 413.6686683351962, 413.6887345816428, 413.70698652825024, 413.7302356321928, 413.7548283895776, 413.780059263388, 413.8036298974259, 413.8261577678992, 413.8497036213165, 413.8737808058426, 413.9240352243323, 413.937864726248, 413.94848238784726, 413.956599369679, 413.9434737362591, 413.95207891485256, 413.9513177604836, 413.9404606970798, 413.9229791126032, 413.8937722778485, 413.86888332716256, 413.8559249165829, 413.8451266839788, 413.83446675319146, 413.8206929922225, 413.80245427018565, 413.77954937585866, 413.75477648004846, 413.726034977144, 413.6951389197964, 413.6661383018258, 413.6338906192155, 413.60097280930324, 413.5713569398186, 413.5376701891079, 413.5070808305614, 413.4786357063493, 413.4525648251233, 413.43245593870625, 413.3974725003179, 413.3734451860181, 413.34733617600693, 413.32750191571773, 413.3318989000213, 413.32202422445584, 413.31722889631345, 413.31596242739744, 413.3135272525117, 413.3153262884776, 413.319935607474, 413.32342936597115, 413.3310745272614, 413.3396358917405, 413.3515930045819, 413.36887430479203, 413.38989716970366, 413.4131790878844, 413.4421543690609, 413.3999857142856, 413.46921328320786, 413.53199282028584, 413.58832432551947, 413.6382077989088, 413.6816432404538, 413.7186306501546, 413.74917002801095, 413.7732613740231, 413.7909046881929, 413.7963463069457, 413.7958591331288, 413.7885218929695, 413.76780207872804, 413.7509615214525, 413.73868973905536, 413.73885625829456, 413.74482684652986, 413.7677952233543, 413.7865862450261, 413.8130729765609, 413.83938589120044, 413.8744467049996, 413.9109046881929, 413.9529310039823, 413.983746572315, 414.0127797434782, 414.0447770897851, 414.0808580274233, 414.11348429898464, 414.1392799646193, 414.1686373286175, 414.1952600619213, 414.2670057496701, 414.33666342326586, 414.398957540913, 414.4534237063265, 414.50241662981165, 414.56229500221326, 414.6030353825759, 414.64496063688813, 414.67888810261127, 414.71008801415485, 414.7284993365785, 414.7479765590465, 414.75245488721987, 414.7460844758974, 414.7337295444512, 414.7195444493605, 414.7132346306962, 414.69236178682183, 414.73394051304916, 414.7531707209218, 414.76927620522076, 414.79183104821055, 414.8221886333499, 414.84827421495095, 414.86903250774174, 414.89470101725084, 414.9214783281752, 414.95055683326143, 414.96968929677314, 414.9802007961098, 414.9821640866892, 414.97613843432293, 414.9701729323326, 414.9559261388784, 414.9333719593119, 414.9060028011223, 414.9024147132556, 414.884724015924, 414.8749881861518, 414.8653023342672, 414.8556664602685, 414.84608056415567, 414.8365446459287, 414.82705870558766, 414.8176227431325, 414.8082367585632, 414.79890075187984, 414.936896469337, 414.9591933836039, 414.98886973180976, 415.0230955794594, 415.057661805307, 415.0906392287817, 415.12611424217107, 415.15776241091817, 415.19014534669043, 415.2173048242994, 415.23940312282036, 415.25909899889666, 415.2744784328356, 415.2857666543162, 415.293507415656, 415.3030642689498, 415.3076475713846, 415.30831949080124, 415.30517123965797, 415.30067420591683, 415.29691391670644, 415.2900646397321, 415.2861498578758, 415.27980645162194, 415.269247373634, 415.25358286986443, 415.23210833025246, 415.21485712520985, 415.2088355580364, 415.17842059078885, 415.16978185639266, 415.1636466444287, 415.1563574341951, 415.1426495488904, 415.12924187369583, 415.11774941293686, 415.1117316771812, 415.10621968855185, 415.10012903226703, 415.099393214692, 415.09881485602176, 415.1038156593836, 415.107273760978, 415.10909374614664, 415.1164326412152, 415.1255218761677, 415.1346289086729, 415.13961617847895, 415.14733784452756, 415.14963657150815, 415.15105209492924, 415.14253003337933, 415.1374882585679, 415.13261790879653, 415.12925207021044, 415.13242843901526, 415.13864720060224, 415.1443738104155, 415.1464424051504, 415.1478362996011, 415.14943826474763, 415.15123439625177, 415.1574940056943, 415.16492102336827, 415.17739389445967, 415.18193437153286, 415.18589494500964, 415.1873775800362, 415.1858676307098, 415.1849260907271, 415.1794490174358, 415.17735113089515, 415.1800975157672, 415.17718143617265, 415.17379878878666, 415.1676652453433, 415.1611701891079, 415.14984161414816, 415.13343072550646, 415.1313146088336, 415.1329751575915, 415.1320420838058, 415.12991237178, 415.12414046472287, 415.1193812878597, 415.1064770115033, 415.0908153503983, 415.0783460017393, 415.06743908870834, 415.0550298891862, 415.04549635398246, 415.03601794175495, 415.0306351913738, 415.0162402051752, 415.009885881441, 415.0037866559641, 415.00302410086175, 415.00756657603995, 415.01731347588753, 415.03346910147974, 415.0545844353898, 415.0790989782976, 415.1043537263716, 415.1268986734321, 415.15086618877837, 415.17674576691047, 415.2029723973228, 415.2427406171556, 415.2668471140863, 415.2871523503571, 415.300247353035, 415.30938079348323, 415.31840052734395, 415.3210488608832, 415.3295425781823, 415.3347943393984, 415.3420416512264, 415.35053281424706, 415.36409504388484, 415.3778463725217, 415.39016944754326, 415.4050567297086, 415.4189971573443, 415.4342454579252, 415.452244160187, 415.4715419602117, 415.4957773452074, 415.52199530343256, 415.54675342974576, 415.5680615498792, 415.5838409343805, 415.5950446174852, 415.60146137684745, 415.61178593499847, 415.62232604128945, 415.62828488444853, 415.6273590409187, 415.62312458287886, 415.61808317884964, 415.61190841676836, 415.6035837350232, 415.59646075887684, 415.5920643925439, 415.58731491781896, 415.58215857126095, 415.57655716228805, 415.5722580645251, 415.56796304536795, 415.5530048201795, 415.552108886426, 415.54854369052936, 415.5494422197594, 415.55095074775335, 415.5554949944473, 415.5641273019494, 415.5724753429827, 415.58033234458935, 415.58836979360683, 415.59786744531857, 415.6063343838924, 415.61573890743705, 415.6164618094269, 415.63290316401833, 415.64803973551756, 415.660083487835, 415.67348961810325, 415.68539814079145, 415.6977320832672, 415.71049144552154, 415.7236762275545, 415.737286429366, 415.7513220509561, 415.7657830923248, 415.7806695534721, 415.79598143439796, 415.8117187351024, 415.82788145558544, 415.8444695958471, 415.8614831558873, 415.8789221357061], ""Center_y"": [289.9187747497219, 289.92798434768787, 289.9380119356604, 289.94885751363944, 289.9605210816251, 289.97300263961716, 289.9863021876159, 290.00041972562104, 290.0153552536328, 290.031108771651, 290.04768027967583, 290.06506977770715, 290.08327726574504, 290.10230274378944, 290.1221462118466, 290.16589129898045, 290.2155513533619, 290.26735187245714, 290.3106430601966, 290.34378951922514, 290.37247250031527, 290.3954155234274, 290.41211494253497, 290.4438066988074, 290.41839142257453, 290.39377666543703, 290.3540475837413, 290.3060648869176, 290.2591267457732, 290.21734569275134, 290.1789202200038, 290.13661636386735, 290.085441539989, 290.0313054010692, 289.99141867507734, 289.9373239401867, 289.87958985292926, 289.8232422444754, 289.7882363737549, 289.7616512174083, 289.7116649981524, 289.66133011989257, 289.6123568780189, 289.55990631566567, 289.5091874304846, 289.46168792486105, 289.4546213694291, 289.43121344704616, 289.3935815721234, 289.3498797429305, 289.3115600667471, 289.3035522185207, 289.23651433692385, 289.19460054382034, 289.1669188604685, 289.1502989741751, 289.1356032010939, 289.1221950315228, 289.10597392164755, 289.0791685823817, 289.04769237424927, 289.01309479669396, 288.98238425411574, 288.94065381288476, 288.90003485354725, 288.8611119762762, 288.82290557410096, 288.78252515140906, 288.7239847979298, 288.68296625881226, 288.6491018415586, 288.62329538994567, 288.60948794957983, 288.60230515388093, 288.600481769874, 288.56007384749114, 288.52632999629844, 288.5035012359474, 288.4961944135522, 288.49361481894084, 288.46405067359416, 288.46665486343477, 288.4691785935052, 288.4600456680324, 288.43178210357814, 288.4277972438574, 288.4231469534113, 288.41261420097027, 288.40421307626383, 288.3876664812817, 288.3780484489, 288.3565507971883, 288.3370556173588, 288.3166940427698, 288.29831417625144, 288.28457440366464, 288.25962130763196, 288.2542131380609, 288.25545952293294, 288.2530255221914, 288.25293375355955, 288.24906952169704, 288.24484526017187, 288.2396567173465, 288.24049128662097, 288.25189642813626, 288.2648172043073, 288.2761729081758, 288.2869636221378, 288.2893881267314, 288.2826854529787, 288.27085794916786, 288.26313154534466, 288.27602125819436, 288.26798834096127, 288.25052222634827, 288.2455129155914, 288.21696077947314, 288.1926510114181, 288.1619718205476, 288.1311428336074, 288.1007826391526, 288.0682894574281, 288.03347221192894, 287.9913322621906, 287.9807455197195, 287.95274189429205, 287.92232657686117, 287.90760857743794, 287.90647789725836, 287.9206444609299, 287.94487337783346, 287.9793687636531, 288.01656282701566, 288.052853849963, 288.09289661352744, 288.1315709430294, 288.18161185268207, 288.2129631071623, 288.2450026572797, 288.27515350389945, 288.2998397602336, 288.30911123471145, 288.32727926091343, 288.34402360648255, 288.34503973551483, 288.3568377827278, 288.36536886664817, 288.3684657644359, 288.36629990113096, 288.35844759610063, 288.34262334693494, 288.32474372760475, 288.31026640712525, 288.28838332715986, 288.2681906439316, 288.256910950445, 288.2505845383822, 288.2465506735942, 288.23525664319004, 288.22732968731316, 288.22260474602035, 288.22525367693123, 288.2296342850143, 288.2386152515203, 288.25458212829693, 288.2575860215116, 288.2805713756088, 288.30944685453596, 288.3415930045792, 288.3749136077185, 288.4372948955692, 288.47924372760485, 288.5234755901682, 288.5650939315351, 288.60682919293663, 288.6487728958164, 288.71494784328894, 288.73371937956375, 288.74881275491913, 288.7600977011557, 288.7661108639291, 288.76822685700785, 288.76492176493025, 288.7602612161724, 288.75380410333094, 288.7460556791559, 288.72960944259677, 288.7141262513967, 288.69625237919297, 288.5621296992481, 288.5752706766917, 288.58605347928636, 288.59447810703216, 288.6005445599291, 288.6042528379771, 288.6056029411763, 288.60459486952664, 288.601228623028, 288.59550420168193, 288.6104128704126, 288.5506837682454, 288.5305866873078, 288.5029845201251, 288.4833996019473, 288.4453365767372, 288.42682773109374, 288.3914126492715, 288.3742222467947, 288.3714294559942, 288.3858892083162, 288.4193219814254, 288.4621559044683, 288.516366209643, 288.56650840336266, 288.6089317779756, 288.65678107032414, 288.7285227775334, 288.803562140647, 288.843979212739, 288.87330473242054, 288.8882122954458, 288.889526758073, 288.8673140203462, 288.8501468376837, 288.8125475453352, 288.805662538701, 288.80443122512287, 288.82387306501676, 288.81112428129273, 288.79754842989956, 288.7891384343224, 288.7846784608593, 288.7841773551538, 288.79644582043466, 288.81665347191637, 288.81585802742273, 288.80567381689644, 288.79714904909457, 288.761275762938, 288.7318053958438, 288.6988626713856, 288.6838659885019, 288.6843681999128, 288.68487616099196, 288.68036200796234, 288.6745961963745, 288.65379544449485, 288.66148076072665, 288.6819807607266, 288.7204033613458, 288.7550643520579, 288.7903365767373, 288.8204794338801, 288.8436766917306, 288.8589699248133, 288.8668903140216, 288.8634551083604, 288.8874279817203, 288.91041943093154, 288.9477815126063, 288.9710566317756, 288.99429017642154, 289.01748214654293, 289.04063254213975, 289.06374136321205, 289.08680860975977, 289.109834281783, 289.1328183792816, 289.15576090225574, 289.1152311416039, 289.13185086310517, 289.16179934495744, 289.1926359741339, 289.22345072715166, 289.25588901248926, 289.2815147901022, 289.30725761134397, 289.3307452107342, 289.3572905285771, 289.38673264533236, 289.40459238660867, 289.4200184773267, 289.4345782968793, 289.44826294649, 289.4546373748672, 289.4547499073107, 289.4567131380609, 289.45691119763325, 289.46189234953044, 289.45921598072556, 289.4546853293846, 289.44817222840817, 289.4337623285194, 289.42020621679035, 289.4175749598382, 289.41617185762584, 289.41585465332474, 289.41082678285136, 289.4158619453777, 289.4298740576011, 289.43926276109886, 289.4485439377148, 289.4873843777099, 289.4870930663763, 289.4901315041467, 289.49573340749606, 289.5062507724695, 289.51494586578303, 289.52244296132136, 289.54205450501183, 289.5653584229453, 289.6000685947412, 289.61831454703383, 289.6380210110061, 289.65066777901995, 289.6573456927513, 289.6546978123904, 289.6430552465766, 289.6339687306947, 289.63714435793486, 289.6480177975591, 289.65373674453724, 289.64807267334703, 289.63084315907196, 289.60655555556184, 289.57918551477576, 289.56020677296385, 289.5384624891918, 289.51497392164754, 289.48890928192446, 289.4674030404216, 289.40395451737123, 289.37205932518236, 289.35430985045735, 289.3224370288037, 289.2937012730257, 289.27593004573606, 289.257801013478, 289.24051476950325, 289.22347670251526, 289.1880386849649, 289.15652440984434, 289.1229852923064, 289.0889023606539, 289.0334801631505, 289.0231991101286, 289.02278642937216, 289.0136508466259, 289.0113282659808, 289.00092028180086, 288.9888499567483, 288.9825990606909, 288.98192411321844, 288.9867633172724, 288.99385823755415, 288.9829212705538, 288.98914411074657, 288.99551736497966, 289.00646075887414, 289.02011308862325, 289.0385408478619, 289.06554257817953, 289.0785707576382, 289.10225979484, 289.1197834631134, 289.1265659374676, 289.12709553825863, 289.11836744531587, 289.0994606352801, 289.0702343344519, 289.03274898035477, 288.98943468051544, 288.9370107526944, 288.9121480657583, 288.8558466197071, 288.8001716722347, 288.76250179212093, 288.7149914720122, 288.67030107527506, 288.6312748733223, 288.5868953157892, 288.54559461130276, 288.50694376468306, 288.470241750099, 288.46137313064526, 288.4480582128353, 288.44204202200604, 288.43804177481775, 288.44019737981097, 288.449699542708, 288.46284377704245, 288.4725403534854, 288.48449363490926, 288.51499826968865, 288.526097021388, 288.53999567421215, 288.5568900012422, 288.5767885304722, 288.57742145594494, 288.57658237548515, 288.5735909034792, 288.5819739216476, 288.6008924731245, 288.62315202077, 288.6436412062848, 288.6299473489124, 288.63335069831305, 288.64600865159446, 288.6518149178162, 288.6586025213262, 288.6670399827031, 288.6814828822211, 288.70241484365965, 288.7207263626314, 288.7343254851132, 288.7439097763009, 288.75959541466455, 288.7951281671055, 288.81450284267095, 288.8283531083983, 288.84538987764813, 288.8706957112904, 288.8717492893401, 288.8849311580831, 288.8959842417563, 288.8983735014276, 288.88652175257084, 288.88225423310473, 288.8766511556113, 288.8716175998085, 288.8657508960636, 288.84485304660126, 288.8188370411631, 288.7799885057534, 288.7771073414968, 288.77303462577476, 288.77057608453845, 288.7697317177817, 288.7705015255046, 288.77288550770703, 288.77688366438906, 288.7824959955507, 288.7897225011919, 288.79856318131266, 288.809018035913, 288.8210870649929, 288.83477026855246, 288.8500676465915, 288.86697919911023], ""Time_s"": [0.0, 0.0200445434298441, 0.0400890868596882, 0.060133630289532294, 0.0801781737193764, 0.1002227171492205, 0.12026726057906459, 0.1403118040089087, 0.1603563474387528, 0.1804008908685969, 0.200445434298441, 0.2204899777282851, 0.24053452115812918, 0.2605790645879733, 0.2806236080178174, 0.3006681514476615, 0.3207126948775056, 0.34075723830734966, 0.3608017817371938, 0.38084632516703787, 0.400890868596882, 0.4209354120267261, 0.4409799554565702, 0.4610244988864143, 0.48106904231625836, 0.5011135857461024, 0.5211581291759466, 0.5412026726057907, 0.5612472160356348, 0.5812917594654788, 0.601336302895323, 0.6213808463251671, 0.6414253897550112, 0.6614699331848553, 0.6815144766146993, 0.7015590200445435, 0.7216035634743876, 0.7416481069042317, 0.7616926503340757, 0.7817371937639199, 0.801781737193764, 0.8218262806236081, 0.8418708240534521, 0.8619153674832962, 0.8819599109131404, 0.9020044543429845, 0.9220489977728286, 0.9420935412026726, 0.9621380846325167, 0.9821826280623609, 1.0022271714922049, 1.022271714922049, 1.0423162583518932, 1.0623608017817372, 1.0824053452115814, 1.1024498886414256, 1.1224944320712695, 1.1425389755011137, 1.1625835189309577, 1.1826280623608019, 1.202672605790646, 1.22271714922049, 1.2427616926503342, 1.2628062360801782, 1.2828507795100224, 1.3028953229398665, 1.3229398663697105, 1.3429844097995547, 1.3630289532293987, 1.3830734966592428, 1.403118040089087, 1.423162583518931, 1.4432071269487752, 1.4632516703786191, 1.4832962138084633, 1.5033407572383075, 1.5233853006681515, 1.5434298440979957, 1.5634743875278398, 1.5835189309576838, 1.603563474387528, 1.623608017817372, 1.6436525612472161, 1.6636971046770603, 1.6837416481069043, 1.7037861915367485, 1.7238307349665924, 1.7438752783964366, 1.7639198218262808, 1.7839643652561248, 1.804008908685969, 1.824053452115813, 1.8440979955456571, 1.8641425389755013, 1.8841870824053453, 1.9042316258351895, 1.9242761692650334, 1.9443207126948776, 1.9643652561247218, 1.9844097995545658, 2.0044543429844097, 2.024498886414254, 2.044543429844098, 2.0645879732739423, 2.0846325167037865, 2.10467706013363, 2.1247216035634744, 2.1447661469933186, 2.1648106904231628, 2.184855233853007, 2.204899777282851, 2.224944320712695, 2.244988864142539, 2.2650334075723833, 2.2850779510022274, 2.3051224944320716, 2.3251670378619154, 2.3452115812917596, 2.3652561247216037, 2.385300668151448, 2.405345211581292, 2.425389755011136, 2.44543429844098, 2.4654788418708242, 2.4855233853006684, 2.5055679287305126, 2.5256124721603563, 2.5456570155902005, 2.5657015590200447, 2.585746102449889, 2.605790645879733, 2.625835189309577, 2.645879732739421, 2.665924276169265, 2.6859688195991094, 2.7060133630289536, 2.7260579064587973, 2.7461024498886415, 2.7661469933184857, 2.78619153674833, 2.806236080178174, 2.826280623608018, 2.846325167037862, 2.866369710467706, 2.8864142538975504, 2.9064587973273945, 2.9265033407572383, 2.9465478841870825, 2.9665924276169267, 2.986636971046771, 3.006681514476615, 3.026726057906459, 3.046770601336303, 3.066815144766147, 3.0868596881959913, 3.1069042316258355, 3.1269487750556797, 3.1469933184855234, 3.1670378619153676, 3.187082405345212, 3.207126948775056, 3.2271714922049, 3.247216035634744, 3.267260579064588, 3.2873051224944323, 3.3073496659242765, 3.3273942093541207, 3.3474387527839644, 3.3674832962138086, 3.387527839643653, 3.407572383073497, 3.427616926503341, 3.447661469933185, 3.467706013363029, 3.4877505567928733, 3.5077951002227175, 3.5278396436525616, 3.5478841870824054, 3.5679287305122496, 3.5879732739420938, 3.608017817371938, 3.628062360801782, 3.648106904231626, 3.66815144766147, 3.6881959910913142, 3.7082405345211584, 3.7282850779510026, 3.7483296213808464, 3.7683741648106905, 3.7884187082405347, 3.808463251670379, 3.828507795100223, 3.848552338530067, 3.868596881959911, 3.888641425389755, 3.9086859688195994, 3.9287305122494436, 3.9487750556792878, 3.9688195991091315, 3.9888641425389757, 4.008908685968819, 4.028953229398664, 4.048997772828508, 4.069042316258352, 4.089086859688196, 4.10913140311804, 4.129175946547885, 4.149220489977728, 4.169265033407573, 4.189309576837417, 4.20935412026726, 4.229398663697105, 4.249443207126949, 4.269487750556793, 4.289532293986637, 4.309576837416482, 4.3296213808463255, 4.349665924276169, 4.369710467706014, 4.389755011135858, 4.409799554565702, 4.429844097995546, 4.44988864142539, 4.469933184855234, 4.489977728285078, 4.510022271714923, 4.5300668151447665, 4.55011135857461, 4.570155902004455, 4.590200445434299, 4.610244988864143, 4.630289532293987, 4.650334075723831, 4.670378619153675, 4.690423162583519, 4.710467706013364, 4.7305122494432075, 4.750556792873051, 4.770601336302896, 4.79064587973274, 4.810690423162584, 4.830734966592428, 4.850779510022272, 4.870824053452116, 4.89086859688196, 4.910913140311805, 4.9309576837416484, 4.951002227171492, 4.971046770601337, 4.991091314031181, 5.011135857461025, 5.031180400890869, 5.051224944320713, 5.071269487750557, 5.091314031180401, 5.111358574610246, 5.131403118040089, 5.151447661469933, 5.171492204899778, 5.1915367483296215, 5.211581291759466, 5.23162583518931, 5.251670378619154, 5.271714922048998, 5.291759465478842, 5.311804008908687, 5.33184855233853, 5.351893095768374, 5.371937639198219, 5.3919821826280625, 5.412026726057907, 5.432071269487751, 5.452115812917595, 5.472160356347439, 5.492204899777283, 5.512249443207128, 5.532293986636971, 5.552338530066815, 5.57238307349666, 5.5924276169265035, 5.612472160356348, 5.632516703786192, 5.652561247216036, 5.67260579064588, 5.692650334075724, 5.712694877505569, 5.732739420935412, 5.752783964365256, 5.772828507795101, 5.7928730512249444, 5.812917594654789, 5.832962138084633, 5.853006681514477, 5.873051224944321, 5.893095768374165, 5.91314031180401, 5.933184855233853, 5.953229398663697, 5.973273942093542, 5.993318485523385, 6.01336302895323, 6.033407572383074, 6.053452115812918, 6.073496659242762, 6.093541202672606, 6.1135857461024505, 6.133630289532294, 6.153674832962139, 6.173719376391983, 6.193763919821826, 6.213808463251671, 6.233853006681515, 6.253897550111359, 6.273942093541203, 6.293986636971047, 6.3140311804008915, 6.334075723830735, 6.35412026726058, 6.374164810690424, 6.394209354120267, 6.414253897550112, 6.434298440979956, 6.4543429844098, 6.474387527839644, 6.494432071269488, 6.5144766146993325, 6.534521158129176, 6.554565701559021, 6.574610244988865, 6.594654788418708, 6.614699331848553, 6.634743875278397, 6.654788418708241, 6.674832962138085, 6.694877505567929, 6.7149220489977735, 6.734966592427617, 6.755011135857462, 6.775055679287306, 6.795100222717149, 6.815144766146994, 6.835189309576838, 6.855233853006682, 6.875278396436526, 6.89532293986637, 6.915367483296214, 6.935412026726058, 6.955456570155903, 6.9755011135857465, 6.99554565701559, 7.015590200445435, 7.035634743875279, 7.055679287305123, 7.075723830734967, 7.095768374164811, 7.115812917594655, 7.135857461024499, 7.155902004454344, 7.1759465478841875, 7.195991091314031, 7.216035634743876, 7.23608017817372, 7.256124721603564, 7.276169265033408, 7.296213808463252, 7.316258351893096, 7.33630289532294, 7.356347438752785, 7.3763919821826285, 7.396436525612472, 7.416481069042317, 7.436525612472161, 7.456570155902005, 7.476614699331849, 7.496659242761693, 7.516703786191537, 7.536748329621381, 7.556792873051226, 7.5768374164810695, 7.596881959910913, 7.616926503340758, 7.636971046770602, 7.657015590200446, 7.67706013363029, 7.697104677060134, 7.717149220489978, 7.737193763919822, 7.757238307349667, 7.77728285077951, 7.797327394209355, 7.817371937639199, 7.8374164810690425, 7.857461024498887, 7.877505567928731, 7.8975501113585755, 7.917594654788419, 7.937639198218263, 7.957683741648108, 7.977728285077951, 7.997772828507796, 8.017817371937639, 8.037861915367484, 8.057906458797328, 8.077951002227172, 8.097995545657016, 8.11804008908686, 8.138084632516705, 8.158129175946549, 8.178173719376392, 8.198218262806236, 8.21826280623608, 8.238307349665925, 8.25835189309577, 8.278396436525613, 8.298440979955457, 8.3184855233853, 8.338530066815146, 8.35857461024499, 8.378619153674833, 8.398663697104677, 8.41870824053452, 8.438752783964366, 8.45879732739421, 8.478841870824054, 8.498886414253898, 8.518930957683741, 8.538975501113587, 8.55902004454343, 8.579064587973274, 8.599109131403118, 8.619153674832964, 8.639198218262807, 8.659242761692651, 8.679287305122495, 8.699331848552339, 8.719376391982184, 8.739420935412028, 8.759465478841872, 8.779510022271715, 8.799554565701559, 8.819599109131405, 8.839643652561248, 8.859688195991092, 8.879732739420936, 8.89977728285078, 8.919821826280625, 8.939866369710469, 8.959910913140313, 8.979955456570156, 9.0]}","{""calibration"": {""video_file"": ""C:\\Users\\viole\\Documents\\Myo6\\Data_analysis\\Video_temoin\\ID_601\\26-04-2026_20h30min14sec\\video.mp4"", ""frame_index"": 10, ""circle"": {""x"": 894, ""y"": 283.5, ""r"": 51.5}, ""circle_local"": {""x"": 254, ""y"": 283.5}, ""crop_offset_x"": 640, ""iris_d_mm"": 11.5, ""conversion_coef"": 0.11165048543689321}, ""detector_params_left"": {""coarse_detection"": false, ""coarse_filter_min"": 20, ""coarse_filter_max"": 110, ""blur_size"": 5, ""canny_treshold"": 100, ""canny_ratio"": 2, ""canny_aperture"": 5, ""pupil_size_max"": 85, ""pupil_size_min"": 15, ""strong_perimeter_ratio_range_min"": 0.75, ""strong_perimeter_ratio_range_max"": 1.25, ""strong_area_ratio_range_min"": 0.66, ""strong_area_ratio_range_max"": 1.15, ""contour_size_min"": 40, ""ellipse_roundness_ratio"": 0.8, ""initial_ellipse_fit_treshhold"": 0.8, ""final_perimeter_ratio_range_min"": 0.7, ""final_perimeter_ratio_range_max"": 1.3, ""ellipse_true_support_min_dist"": 3, ""support_pixel_ratio_exponent"": 1.8}, ""detector_params_right"": {""coarse_detection"": false, ""coarse_filter_min"": 20, ""coarse_filter_max"": 110, ""blur_size"": 5, ""canny_treshold"": 100, ""canny_ratio"": 2, ""canny_aperture"": 5, ""pupil_size_max"": 85, ""pupil_size_min"": 15, ""strong_perimeter_ratio_range_min"": 0.75, ""strong_perimeter_ratio_range_max"": 1.25, ""strong_area_ratio_range_min"": 0.66, ""strong_area_ratio_range_max"": 1.15, ""contour_size_min"": 40, ""ellipse_roundness_ratio"": 0.8, ""initial_ellipse_fit_treshhold"": 0.8, ""final_perimeter_ratio_range_min"": 0.7, ""final_perimeter_ratio_range_max"": 1.3, ""ellipse_true_support_min_dist"": 3, ""support_pixel_ratio_exponent"": 1.8}, ""stats"": {""frames"": 450, ""total_s"": 15.253107100026682, ""lost_left"": 0, ""lost_right"": 3}, ""clean_window_size"": 35, ""metric_window_size"": 15, ""dataset"": ""Video_temoin""}",C:\Users\viole\Documents\Myo6\Data_analysis\Video_temoin\ID_601\26-04-2026_20h30min14sec\video.mp4,0.1116504854368932,24.03344092649468,13.5816,10.44879091499094,36.283,8.302,0.335,865,961,1100,0.695,1.05,23.2818,0.7088447327755436,1.195,5.845,8.598,2.935,1751,24.0352,10.4536,3.4578,3.4578,1.385,0.5808,36.146,8.686,1.985,0.1899,5.771,8.536,2.923,0.435,0.0416
